'[08:40:00.000]',-0.185
'[08:40:00.008]',-0.155
'[08:40:00.016]',-0.145
'[08:40:00.023]',-0.135
'[08:40:00.031]',-0.105
'[08:40:00.039]',-0.095
'[08:40:00.047]',-0.095
'[08:40:00.055]',-0.065
'[08:40:00.063]',-0.055
'[08:40:00.070]',-0.025
'[08:40:00.078]',-0.005
'[08:40:00.086]',0.025
'[08:40:00.094]',0.045
'[08:40:00.102]',0.075
'[08:40:00.109]',0.095
'[08:40:00.117]',0.105
'[08:40:00.125]',0.105
'[08:40:00.133]',0.115
'[08:40:00.141]',0.105
'[08:40:00.148]',0.075
'[08:40:00.156]',0.045
'[08:40:00.164]',0.005
'[08:40:00.172]',-0.045
'[08:40:00.180]',-0.075
'[08:40:00.188]',-0.105
'[08:40:00.195]',-0.115
'[08:40:00.203]',-0.125
'[08:40:00.211]',-0.125
'[08:40:00.219]',-0.125
'[08:40:00.227]',-0.125
'[08:40:00.234]',-0.125
'[08:40:00.242]',-0.135
'[08:40:00.250]',-0.135
'[08:40:00.258]',-0.135
'[08:40:00.266]',-0.135
'[08:40:00.273]',-0.125
'[08:40:00.281]',-0.125
'[08:40:00.289]',-0.125
'[08:40:00.297]',-0.135
'[08:40:00.305]',-0.135
'[08:40:00.313]',-0.155
'[08:40:00.320]',-0.145
'[08:40:00.328]',-0.165
'[08:40:00.336]',-0.165
'[08:40:00.344]',-0.155
'[08:40:00.352]',-0.175
'[08:40:00.359]',-0.165
'[08:40:00.367]',-0.145
'[08:40:00.375]',-0.095
'[08:40:00.383]',-0.045
'[08:40:00.391]',-0.055
'[08:40:00.398]',-0.105
'[08:40:00.406]',-0.105
'[08:40:00.414]',-0.165
'[08:40:00.422]',-0.195
'[08:40:00.430]',-0.205
'[08:40:00.438]',-0.225
'[08:40:00.445]',-0.215
'[08:40:00.453]',-0.215
'[08:40:00.461]',-0.215
'[08:40:00.469]',-0.205
'[08:40:00.477]',-0.205
'[08:40:00.484]',-0.215
'[08:40:00.492]',-0.215
'[08:40:00.500]',-0.215
'[08:40:00.508]',-0.215
'[08:40:00.516]',-0.195
'[08:40:00.523]',-0.175
'[08:40:00.531]',-0.265
'[08:40:00.539]',-0.435
'[08:40:00.547]',-0.235
'[08:40:00.555]',0.385
'[08:40:00.563]',1.325
'[08:40:00.570]',1.495
'[08:40:00.578]',0.355
'[08:40:00.586]',-0.515
'[08:40:00.594]',-0.565
'[08:40:00.602]',-0.365
'[08:40:00.609]',-0.225
'[08:40:00.617]',-0.205
'[08:40:00.625]',-0.215
'[08:40:00.633]',-0.235
'[08:40:00.641]',-0.225
'[08:40:00.648]',-0.225
'[08:40:00.656]',-0.215
'[08:40:00.664]',-0.195
'[08:40:00.672]',-0.195
'[08:40:00.680]',-0.205
'[08:40:00.688]',-0.175
'[08:40:00.695]',-0.185
'[08:40:00.703]',-0.175
'[08:40:00.711]',-0.165
'[08:40:00.719]',-0.145
'[08:40:00.727]',-0.125
'[08:40:00.734]',-0.115
'[08:40:00.742]',-0.105
'[08:40:00.750]',-0.085
'[08:40:00.758]',-0.085
'[08:40:00.766]',-0.055
'[08:40:00.773]',-0.045
'[08:40:00.781]',-0.015
'[08:40:00.789]',0.015
'[08:40:00.797]',0.035
'[08:40:00.805]',0.045
'[08:40:00.813]',0.085
'[08:40:00.820]',0.105
'[08:40:00.828]',0.135
'[08:40:00.836]',0.145
'[08:40:00.844]',0.155
'[08:40:00.852]',0.165
'[08:40:00.859]',0.145
'[08:40:00.867]',0.105
'[08:40:00.875]',0.085
'[08:40:00.883]',0.035
'[08:40:00.891]',0.005
'[08:40:00.898]',-0.035
'[08:40:00.906]',-0.065
'[08:40:00.914]',-0.065
'[08:40:00.922]',-0.085
'[08:40:00.930]',-0.095
'[08:40:00.938]',-0.095
'[08:40:00.945]',-0.095
'[08:40:00.953]',-0.105
'[08:40:00.961]',-0.105
'[08:40:00.969]',-0.085
'[08:40:00.977]',-0.085
'[08:40:00.984]',-0.095
'[08:40:00.992]',-0.095
'[08:40:01.000]',-0.085
'[08:40:01.008]',-0.085
'[08:40:01.016]',-0.085
'[08:40:01.023]',-0.095
'[08:40:01.031]',-0.085
'[08:40:01.039]',-0.085
'[08:40:01.047]',-0.095
'[08:40:01.055]',-0.105
'[08:40:01.063]',-0.125
'[08:40:01.070]',-0.115
'[08:40:01.078]',-0.125
'[08:40:01.086]',-0.135
'[08:40:01.094]',-0.125
'[08:40:01.102]',-0.115
'[08:40:01.109]',-0.135
'[08:40:01.117]',-0.145
'[08:40:01.125]',-0.125
'[08:40:01.133]',-0.065
'[08:40:01.141]',0.005
'[08:40:01.148]',0.005
'[08:40:01.156]',-0.035
'[08:40:01.164]',-0.055
'[08:40:01.172]',-0.085
'[08:40:01.180]',-0.135
'[08:40:01.188]',-0.145
'[08:40:01.195]',-0.165
'[08:40:01.203]',-0.165
'[08:40:01.211]',-0.165
'[08:40:01.219]',-0.175
'[08:40:01.227]',-0.155
'[08:40:01.234]',-0.165
'[08:40:01.242]',-0.175
'[08:40:01.250]',-0.155
'[08:40:01.258]',-0.165
'[08:40:01.266]',-0.155
'[08:40:01.273]',-0.145
'[08:40:01.281]',-0.155
'[08:40:01.289]',-0.395
'[08:40:01.297]',-0.255
'[08:40:01.305]',0.355
'[08:40:01.313]',1.455
'[08:40:01.320]',1.535
'[08:40:01.328]',0.085
'[08:40:01.336]',-0.575
'[08:40:01.344]',-0.455
'[08:40:01.352]',-0.225
'[08:40:01.359]',-0.125
'[08:40:01.367]',-0.155
'[08:40:01.375]',-0.185
'[08:40:01.383]',-0.175
'[08:40:01.391]',-0.175
'[08:40:01.398]',-0.175
'[08:40:01.406]',-0.155
'[08:40:01.414]',-0.165
'[08:40:01.422]',-0.155
'[08:40:01.430]',-0.155
'[08:40:01.438]',-0.145
'[08:40:01.445]',-0.125
'[08:40:01.453]',-0.125
'[08:40:01.461]',-0.115
'[08:40:01.469]',-0.095
'[08:40:01.477]',-0.085
'[08:40:01.484]',-0.065
'[08:40:01.492]',-0.055
'[08:40:01.500]',-0.055
'[08:40:01.508]',-0.025
'[08:40:01.516]',-0.005
'[08:40:01.523]',0.015
'[08:40:01.531]',0.045
'[08:40:01.539]',0.065
'[08:40:01.547]',0.075
'[08:40:01.555]',0.105
'[08:40:01.563]',0.135
'[08:40:01.570]',0.175
'[08:40:01.578]',0.195
'[08:40:01.586]',0.215
'[08:40:01.594]',0.235
'[08:40:01.602]',0.225
'[08:40:01.609]',0.195
'[08:40:01.617]',0.165
'[08:40:01.625]',0.115
'[08:40:01.633]',0.095
'[08:40:01.641]',0.045
'[08:40:01.648]',0.015
'[08:40:01.656]',-0.015
'[08:40:01.664]',-0.035
'[08:40:01.672]',-0.045
'[08:40:01.680]',-0.055
'[08:40:01.688]',-0.065
'[08:40:01.695]',-0.055
'[08:40:01.703]',-0.055
'[08:40:01.711]',-0.045
'[08:40:01.719]',-0.035
'[08:40:01.727]',-0.045
'[08:40:01.734]',-0.045
'[08:40:01.742]',-0.045
'[08:40:01.750]',-0.065
'[08:40:01.758]',-0.055
'[08:40:01.766]',-0.045
'[08:40:01.773]',-0.045
'[08:40:01.781]',-0.045
'[08:40:01.789]',-0.045
'[08:40:01.797]',-0.045
'[08:40:01.805]',-0.055
'[08:40:01.813]',-0.075
'[08:40:01.820]',-0.065
'[08:40:01.828]',-0.085
'[08:40:01.836]',-0.095
'[08:40:01.844]',-0.095
'[08:40:01.852]',-0.095
'[08:40:01.859]',-0.095
'[08:40:01.867]',-0.095
'[08:40:01.875]',-0.115
'[08:40:01.883]',-0.105
'[08:40:01.891]',-0.105
'[08:40:01.898]',-0.085
'[08:40:01.906]',-0.005
'[08:40:01.914]',0.055
'[08:40:01.922]',0.035
'[08:40:01.930]',-0.025
'[08:40:01.938]',-0.075
'[08:40:01.945]',-0.085
'[08:40:01.953]',-0.105
'[08:40:01.961]',-0.135
'[08:40:01.969]',-0.145
'[08:40:01.977]',-0.125
'[08:40:01.984]',-0.125
'[08:40:01.992]',-0.145
'[08:40:02.000]',-0.145
'[08:40:02.008]',-0.155
'[08:40:02.016]',-0.155
'[08:40:02.023]',-0.145
'[08:40:02.031]',-0.145
'[08:40:02.039]',-0.125
'[08:40:02.047]',-0.125
'[08:40:02.055]',-0.115
'[08:40:02.063]',-0.245
'[08:40:02.070]',-0.425
'[08:40:02.078]',-0.035
'[08:40:02.086]',0.775
'[08:40:02.094]',1.745
'[08:40:02.102]',0.975
'[08:40:02.109]',-0.335
'[08:40:02.117]',-0.535
'[08:40:02.125]',-0.355
'[08:40:02.133]',-0.155
'[08:40:02.141]',-0.125
'[08:40:02.148]',-0.145
'[08:40:02.156]',-0.165
'[08:40:02.164]',-0.145
'[08:40:02.172]',-0.155
'[08:40:02.180]',-0.155
'[08:40:02.188]',-0.135
'[08:40:02.195]',-0.145
'[08:40:02.203]',-0.135
'[08:40:02.211]',-0.135
'[08:40:02.219]',-0.125
'[08:40:02.227]',-0.105
'[08:40:02.234]',-0.095
'[08:40:02.242]',-0.095
'[08:40:02.250]',-0.085
'[08:40:02.258]',-0.045
'[08:40:02.266]',-0.035
'[08:40:02.273]',-0.025
'[08:40:02.281]',0.005
'[08:40:02.289]',0.015
'[08:40:02.297]',0.025
'[08:40:02.305]',0.065
'[08:40:02.313]',0.075
'[08:40:02.320]',0.105
'[08:40:02.328]',0.135
'[08:40:02.336]',0.165
'[08:40:02.344]',0.195
'[08:40:02.352]',0.205
'[08:40:02.359]',0.215
'[08:40:02.367]',0.225
'[08:40:02.375]',0.195
'[08:40:02.383]',0.185
'[08:40:02.391]',0.135
'[08:40:02.398]',0.085
'[08:40:02.406]',0.065
'[08:40:02.414]',0.035
'[08:40:02.422]',-0.015
'[08:40:02.430]',-0.015
'[08:40:02.438]',-0.055
'[08:40:02.445]',-0.045
'[08:40:02.453]',-0.065
'[08:40:02.461]',-0.055
'[08:40:02.469]',-0.045
'[08:40:02.477]',-0.055
'[08:40:02.484]',-0.055
'[08:40:02.492]',-0.045
'[08:40:02.500]',-0.055
'[08:40:02.508]',-0.055
'[08:40:02.516]',-0.045
'[08:40:02.523]',-0.065
'[08:40:02.531]',-0.055
'[08:40:02.539]',-0.045
'[08:40:02.547]',-0.055
'[08:40:02.555]',-0.055
'[08:40:02.563]',-0.075
'[08:40:02.570]',-0.065
'[08:40:02.578]',-0.075
'[08:40:02.586]',-0.085
'[08:40:02.594]',-0.085
'[08:40:02.602]',-0.085
'[08:40:02.609]',-0.105
'[08:40:02.617]',-0.095
'[08:40:02.625]',-0.105
'[08:40:02.633]',-0.105
'[08:40:02.641]',-0.115
'[08:40:02.648]',-0.105
'[08:40:02.656]',-0.065
'[08:40:02.664]',-0.005
'[08:40:02.672]',0.035
'[08:40:02.680]',0.015
'[08:40:02.688]',-0.055
'[08:40:02.695]',-0.055
'[08:40:02.703]',-0.095
'[08:40:02.711]',-0.125
'[08:40:02.719]',-0.125
'[08:40:02.727]',-0.125
'[08:40:02.734]',-0.145
'[08:40:02.742]',-0.145
'[08:40:02.750]',-0.155
'[08:40:02.758]',-0.145
'[08:40:02.766]',-0.145
'[08:40:02.773]',-0.145
'[08:40:02.781]',-0.125
'[08:40:02.789]',-0.135
'[08:40:02.797]',-0.115
'[08:40:02.805]',-0.115
'[08:40:02.813]',-0.345
'[08:40:02.820]',-0.375
'[08:40:02.828]',0.025
'[08:40:02.836]',0.965
'[08:40:02.844]',1.805
'[08:40:02.852]',1.045
'[08:40:02.859]',-0.255
'[08:40:02.867]',-0.585
'[08:40:02.875]',-0.405
'[08:40:02.883]',-0.205
'[08:40:02.891]',-0.105
'[08:40:02.898]',-0.135
'[08:40:02.906]',-0.135
'[08:40:02.914]',-0.145
'[08:40:02.922]',-0.145
'[08:40:02.930]',-0.145
'[08:40:02.938]',-0.145
'[08:40:02.945]',-0.135
'[08:40:02.953]',-0.135
'[08:40:02.961]',-0.115
'[08:40:02.969]',-0.105
'[08:40:02.977]',-0.085
'[08:40:02.984]',-0.095
'[08:40:02.992]',-0.085
'[08:40:03.000]',-0.095
'[08:40:03.008]',-0.065
'[08:40:03.016]',-0.035
'[08:40:03.023]',-0.045
'[08:40:03.031]',-0.005
'[08:40:03.039]',0.025
'[08:40:03.047]',0.035
'[08:40:03.055]',0.035
'[08:40:03.063]',0.045
'[08:40:03.070]',0.095
'[08:40:03.078]',0.135
'[08:40:03.086]',0.135
'[08:40:03.094]',0.185
'[08:40:03.102]',0.205
'[08:40:03.109]',0.235
'[08:40:03.117]',0.235
'[08:40:03.125]',0.245
'[08:40:03.133]',0.245
'[08:40:03.141]',0.235
'[08:40:03.148]',0.185
'[08:40:03.156]',0.165
'[08:40:03.164]',0.125
'[08:40:03.172]',0.075
'[08:40:03.180]',0.035
'[08:40:03.188]',0.025
'[08:40:03.195]',-0.025
'[08:40:03.203]',-0.045
'[08:40:03.211]',-0.035
'[08:40:03.219]',-0.055
'[08:40:03.227]',-0.055
'[08:40:03.234]',-0.055
'[08:40:03.242]',-0.055
'[08:40:03.250]',-0.035
'[08:40:03.258]',-0.055
'[08:40:03.266]',-0.035
'[08:40:03.273]',-0.045
'[08:40:03.281]',-0.035
'[08:40:03.289]',-0.025
'[08:40:03.297]',-0.025
'[08:40:03.305]',-0.045
'[08:40:03.313]',-0.035
'[08:40:03.320]',-0.055
'[08:40:03.328]',-0.035
'[08:40:03.336]',-0.045
'[08:40:03.344]',-0.055
'[08:40:03.352]',-0.035
'[08:40:03.359]',-0.035
'[08:40:03.367]',0.035
'[08:40:03.375]',0.065
'[08:40:03.383]',0.015
'[08:40:03.391]',0.005
'[08:40:03.398]',-0.025
'[08:40:03.406]',-0.085
'[08:40:03.414]',-0.095
'[08:40:03.422]',-0.115
'[08:40:03.430]',-0.135
'[08:40:03.438]',-0.125
'[08:40:03.445]',-0.145
'[08:40:03.453]',-0.135
'[08:40:03.461]',-0.135
'[08:40:03.469]',-0.145
'[08:40:03.477]',-0.125
'[08:40:03.484]',-0.135
'[08:40:03.492]',-0.135
'[08:40:03.500]',-0.125
'[08:40:03.508]',-0.095
'[08:40:03.516]',-0.185
'[08:40:03.523]',-0.435
'[08:40:03.531]',-0.265
'[08:40:03.539]',0.555
'[08:40:03.547]',1.665
'[08:40:03.555]',1.495
'[08:40:03.563]',0.105
'[08:40:03.570]',-0.585
'[08:40:03.578]',-0.505
'[08:40:03.586]',-0.315
'[08:40:03.594]',-0.155
'[08:40:03.602]',-0.125
'[08:40:03.609]',-0.155
'[08:40:03.617]',-0.175
'[08:40:03.625]',-0.155
'[08:40:03.633]',-0.155
'[08:40:03.641]',-0.155
'[08:40:03.648]',-0.145
'[08:40:03.656]',-0.145
'[08:40:03.664]',-0.115
'[08:40:03.672]',-0.125
'[08:40:03.680]',-0.125
'[08:40:03.688]',-0.105
'[08:40:03.695]',-0.105
'[08:40:03.703]',-0.085
'[08:40:03.711]',-0.085
'[08:40:03.719]',-0.045
'[08:40:03.727]',-0.035
'[08:40:03.734]',-0.035
'[08:40:03.742]',-0.015
'[08:40:03.750]',-0.005
'[08:40:03.758]',0.045
'[08:40:03.766]',0.055
'[08:40:03.773]',0.065
'[08:40:03.781]',0.115
'[08:40:03.789]',0.135
'[08:40:03.797]',0.145
'[08:40:03.805]',0.165
'[08:40:03.813]',0.175
'[08:40:03.820]',0.205
'[08:40:03.828]',0.195
'[08:40:03.836]',0.155
'[08:40:03.844]',0.135
'[08:40:03.852]',0.085
'[08:40:03.859]',0.055
'[08:40:03.867]',0.015
'[08:40:03.875]',-0.045
'[08:40:03.883]',-0.055
'[08:40:03.891]',-0.065
'[08:40:03.898]',-0.085
'[08:40:03.906]',-0.075
'[08:40:03.914]',-0.075
'[08:40:03.922]',-0.085
'[08:40:03.930]',-0.085
'[08:40:03.938]',-0.095
'[08:40:03.945]',-0.085
'[08:40:03.953]',-0.075
'[08:40:03.961]',-0.075
'[08:40:03.969]',-0.065
'[08:40:03.977]',-0.065
'[08:40:03.984]',-0.065
'[08:40:03.992]',-0.065
'[08:40:04.000]',-0.085
'[08:40:04.008]',-0.075
'[08:40:04.016]',-0.075
'[08:40:04.023]',-0.085
'[08:40:04.031]',-0.085
'[08:40:04.039]',-0.095
'[08:40:04.047]',-0.075
'[08:40:04.055]',-0.055
'[08:40:04.063]',-0.015
'[08:40:04.070]',0.015
'[08:40:04.078]',-0.025
'[08:40:04.086]',-0.055
'[08:40:04.094]',-0.085
'[08:40:04.102]',-0.135
'[08:40:04.109]',-0.145
'[08:40:04.117]',-0.175
'[08:40:04.125]',-0.175
'[08:40:04.133]',-0.165
'[08:40:04.141]',-0.175
'[08:40:04.148]',-0.175
'[08:40:04.156]',-0.155
'[08:40:04.164]',-0.165
'[08:40:04.172]',-0.175
'[08:40:04.180]',-0.165
'[08:40:04.188]',-0.175
'[08:40:04.195]',-0.145
'[08:40:04.203]',-0.155
'[08:40:04.211]',-0.325
'[08:40:04.219]',-0.365
'[08:40:04.227]',-0.035
'[08:40:04.234]',0.715
'[08:40:04.242]',1.625
'[08:40:04.250]',1.215
'[08:40:04.258]',-0.085
'[08:40:04.266]',-0.575
'[08:40:04.273]',-0.465
'[08:40:04.281]',-0.235
'[08:40:04.289]',-0.145
'[08:40:04.297]',-0.175
'[08:40:04.305]',-0.185
'[08:40:04.313]',-0.205
'[08:40:04.320]',-0.185
'[08:40:04.328]',-0.185
'[08:40:04.336]',-0.175
'[08:40:04.344]',-0.155
'[08:40:04.352]',-0.165
'[08:40:04.359]',-0.155
'[08:40:04.367]',-0.145
'[08:40:04.375]',-0.165
'[08:40:04.383]',-0.135
'[08:40:04.391]',-0.125
'[08:40:04.398]',-0.115
'[08:40:04.406]',-0.095
'[08:40:04.414]',-0.085
'[08:40:04.422]',-0.065
'[08:40:04.430]',-0.045
'[08:40:04.438]',-0.045
'[08:40:04.445]',-0.015
'[08:40:04.453]',0.005
'[08:40:04.461]',0.025
'[08:40:04.469]',0.075
'[08:40:04.477]',0.075
'[08:40:04.484]',0.105
'[08:40:04.492]',0.125
'[08:40:04.500]',0.135
'[08:40:04.508]',0.165
'[08:40:04.516]',0.175
'[08:40:04.523]',0.185
'[08:40:04.531]',0.165
'[08:40:04.539]',0.125
'[08:40:04.547]',0.085
'[08:40:04.555]',0.035
'[08:40:04.563]',-0.015
'[08:40:04.570]',-0.035
'[08:40:04.578]',-0.065
'[08:40:04.586]',-0.085
'[08:40:04.594]',-0.075
'[08:40:04.602]',-0.105
'[08:40:04.609]',-0.115
'[08:40:04.617]',-0.115
'[08:40:04.625]',-0.125
'[08:40:04.633]',-0.105
'[08:40:04.641]',-0.095
'[08:40:04.648]',-0.115
'[08:40:04.656]',-0.095
'[08:40:04.664]',-0.085
'[08:40:04.672]',-0.095
'[08:40:04.680]',-0.095
'[08:40:04.688]',-0.115
'[08:40:04.695]',-0.095
'[08:40:04.703]',-0.095
'[08:40:04.711]',-0.095
'[08:40:04.719]',-0.095
'[08:40:04.727]',-0.085
'[08:40:04.734]',-0.095
'[08:40:04.742]',-0.115
'[08:40:04.750]',-0.135
'[08:40:04.758]',-0.115
'[08:40:04.766]',-0.125
'[08:40:04.773]',-0.145
'[08:40:04.781]',-0.135
'[08:40:04.789]',-0.105
'[08:40:04.797]',-0.055
'[08:40:04.805]',0.005
'[08:40:04.813]',-0.025
'[08:40:04.820]',-0.065
'[08:40:04.828]',-0.095
'[08:40:04.836]',-0.145
'[08:40:04.844]',-0.135
'[08:40:04.852]',-0.165
'[08:40:04.859]',-0.165
'[08:40:04.867]',-0.185
'[08:40:04.875]',-0.175
'[08:40:04.883]',-0.175
'[08:40:04.891]',-0.185
'[08:40:04.898]',-0.185
'[08:40:04.906]',-0.165
'[08:40:04.914]',-0.155
'[08:40:04.922]',-0.165
'[08:40:04.930]',-0.155
'[08:40:04.938]',-0.155
'[08:40:04.945]',-0.335
'[08:40:04.953]',-0.395
'[08:40:04.961]',0.065
'[08:40:04.969]',1.025
'[08:40:04.977]',1.755
'[08:40:04.984]',0.595
'[08:40:04.992]',-0.505
'[08:40:05.000]',-0.545
'[08:40:05.008]',-0.315
'[08:40:05.016]',-0.155
'[08:40:05.023]',-0.155
'[08:40:05.031]',-0.175
'[08:40:05.039]',-0.175
'[08:40:05.047]',-0.185
'[08:40:05.055]',-0.165
'[08:40:05.063]',-0.175
'[08:40:05.070]',-0.165
'[08:40:05.078]',-0.165
'[08:40:05.086]',-0.165
'[08:40:05.094]',-0.145
'[08:40:05.102]',-0.135
'[08:40:05.109]',-0.135
'[08:40:05.117]',-0.125
'[08:40:05.125]',-0.115
'[08:40:05.133]',-0.095
'[08:40:05.141]',-0.085
'[08:40:05.148]',-0.075
'[08:40:05.156]',-0.045
'[08:40:05.164]',-0.025
'[08:40:05.172]',-0.015
'[08:40:05.180]',0.005
'[08:40:05.188]',0.005
'[08:40:05.195]',0.055
'[08:40:05.203]',0.085
'[08:40:05.211]',0.095
'[08:40:05.219]',0.145
'[08:40:05.227]',0.165
'[08:40:05.234]',0.185
'[08:40:05.242]',0.185
'[08:40:05.250]',0.185
'[08:40:05.258]',0.215
'[08:40:05.266]',0.185
'[08:40:05.273]',0.145
'[08:40:05.281]',0.125
'[08:40:05.289]',0.085
'[08:40:05.297]',0.035
'[08:40:05.305]',0.005
'[08:40:05.313]',-0.015
'[08:40:05.320]',-0.065
'[08:40:05.328]',-0.075
'[08:40:05.336]',-0.075
'[08:40:05.344]',-0.075
'[08:40:05.352]',-0.065
'[08:40:05.359]',-0.085
'[08:40:05.367]',-0.085
'[08:40:05.375]',-0.075
'[08:40:05.383]',-0.095
'[08:40:05.391]',-0.075
'[08:40:05.398]',-0.075
'[08:40:05.406]',-0.075
'[08:40:05.414]',-0.065
'[08:40:05.422]',-0.065
'[08:40:05.430]',-0.065
'[08:40:05.438]',-0.075
'[08:40:05.445]',-0.095
'[08:40:05.453]',-0.075
'[08:40:05.461]',-0.085
'[08:40:05.469]',-0.075
'[08:40:05.477]',-0.075
'[08:40:05.484]',-0.085
'[08:40:05.492]',-0.095
'[08:40:05.500]',-0.105
'[08:40:05.508]',-0.135
'[08:40:05.516]',-0.115
'[08:40:05.523]',-0.115
'[08:40:05.531]',-0.125
'[08:40:05.539]',-0.105
'[08:40:05.547]',-0.125
'[08:40:05.555]',-0.125
'[08:40:05.563]',-0.115
'[08:40:05.570]',-0.145
'[08:40:05.578]',-0.125
'[08:40:05.586]',-0.115
'[08:40:05.594]',-0.125
'[08:40:05.602]',-0.125
'[08:40:05.609]',-0.115
'[08:40:05.617]',-0.125
'[08:40:05.625]',-0.125
'[08:40:05.633]',-0.145
'[08:40:05.641]',-0.125
'[08:40:05.648]',-0.135
'[08:40:05.656]',-0.095
'[08:40:05.664]',-0.035
'[08:40:05.672]',0.015
'[08:40:05.680]',-0.015
'[08:40:05.688]',-0.055
'[08:40:05.695]',-0.105
'[08:40:05.703]',-0.115
'[08:40:05.711]',-0.135
'[08:40:05.719]',-0.135
'[08:40:05.727]',-0.135
'[08:40:05.734]',-0.145
'[08:40:05.742]',-0.155
'[08:40:05.750]',-0.165
'[08:40:05.758]',-0.155
'[08:40:05.766]',-0.145
'[08:40:05.773]',-0.155
'[08:40:05.781]',-0.115
'[08:40:05.789]',-0.095
'[08:40:05.797]',-0.185
'[08:40:05.805]',-0.405
'[08:40:05.813]',-0.195
'[08:40:05.820]',0.435
'[08:40:05.828]',1.555
'[08:40:05.836]',1.445
'[08:40:05.844]',0.075
'[08:40:05.852]',-0.525
'[08:40:05.859]',-0.435
'[08:40:05.867]',-0.185
'[08:40:05.875]',-0.125
'[08:40:05.883]',-0.135
'[08:40:05.891]',-0.155
'[08:40:05.898]',-0.155
'[08:40:05.906]',-0.145
'[08:40:05.914]',-0.145
'[08:40:05.922]',-0.135
'[08:40:05.930]',-0.135
'[08:40:05.938]',-0.145
'[08:40:05.945]',-0.135
'[08:40:05.953]',-0.125
'[08:40:05.961]',-0.115
'[08:40:05.969]',-0.095
'[08:40:05.977]',-0.105
'[08:40:05.984]',-0.085
'[08:40:05.992]',-0.085
'[08:40:06.000]',-0.075
'[08:40:06.008]',-0.045
'[08:40:06.016]',-0.035
'[08:40:06.023]',-0.005
'[08:40:06.031]',0.015
'[08:40:06.039]',0.035
'[08:40:06.047]',0.055
'[08:40:06.055]',0.075
'[08:40:06.063]',0.085
'[08:40:06.070]',0.125
'[08:40:06.078]',0.165
'[08:40:06.086]',0.195
'[08:40:06.094]',0.235
'[08:40:06.102]',0.245
'[08:40:06.109]',0.255
'[08:40:06.117]',0.255
'[08:40:06.125]',0.235
'[08:40:06.133]',0.205
'[08:40:06.141]',0.175
'[08:40:06.148]',0.135
'[08:40:06.156]',0.105
'[08:40:06.164]',0.075
'[08:40:06.172]',0.015
'[08:40:06.180]',-0.015
'[08:40:06.188]',-0.015
'[08:40:06.195]',-0.055
'[08:40:06.203]',-0.045
'[08:40:06.211]',-0.065
'[08:40:06.219]',-0.055
'[08:40:06.227]',-0.045
'[08:40:06.234]',-0.045
'[08:40:06.242]',-0.045
'[08:40:06.250]',-0.055
'[08:40:06.258]',-0.055
'[08:40:06.266]',-0.055
'[08:40:06.273]',-0.055
'[08:40:06.281]',-0.045
'[08:40:06.289]',-0.035
'[08:40:06.297]',-0.055
'[08:40:06.305]',-0.055
'[08:40:06.313]',-0.075
'[08:40:06.320]',-0.065
'[08:40:06.328]',-0.055
'[08:40:06.336]',-0.065
'[08:40:06.344]',-0.055
'[08:40:06.352]',-0.075
'[08:40:06.359]',-0.085
'[08:40:06.367]',-0.105
'[08:40:06.375]',-0.115
'[08:40:06.383]',-0.105
'[08:40:06.391]',-0.105
'[08:40:06.398]',-0.105
'[08:40:06.406]',-0.105
'[08:40:06.414]',-0.105
'[08:40:06.422]',-0.105
'[08:40:06.430]',-0.115
'[08:40:06.438]',-0.135
'[08:40:06.445]',-0.115
'[08:40:06.453]',-0.105
'[08:40:06.461]',-0.115
'[08:40:06.469]',-0.095
'[08:40:06.477]',-0.105
'[08:40:06.484]',-0.115
'[08:40:06.492]',-0.105
'[08:40:06.500]',-0.115
'[08:40:06.508]',-0.115
'[08:40:06.516]',-0.105
'[08:40:06.523]',-0.105
'[08:40:06.531]',-0.105
'[08:40:06.539]',-0.095
'[08:40:06.547]',-0.115
'[08:40:06.555]',-0.105
'[08:40:06.563]',-0.115
'[08:40:06.570]',-0.105
'[08:40:06.578]',-0.065
'[08:40:06.586]',0.005
'[08:40:06.594]',0.055
'[08:40:06.602]',0.015
'[08:40:06.609]',-0.025
'[08:40:06.617]',-0.045
'[08:40:06.625]',-0.085
'[08:40:06.633]',-0.095
'[08:40:06.641]',-0.115
'[08:40:06.648]',-0.125
'[08:40:06.656]',-0.115
'[08:40:06.664]',-0.115
'[08:40:06.672]',-0.115
'[08:40:06.680]',-0.125
'[08:40:06.688]',-0.135
'[08:40:06.695]',-0.125
'[08:40:06.703]',-0.125
'[08:40:06.711]',-0.115
'[08:40:06.719]',-0.085
'[08:40:06.727]',-0.105
'[08:40:06.734]',-0.295
'[08:40:06.742]',-0.305
'[08:40:06.750]',0.065
'[08:40:06.758]',0.875
'[08:40:06.766]',1.605
'[08:40:06.773]',1.005
'[08:40:06.781]',-0.105
'[08:40:06.789]',-0.485
'[08:40:06.797]',-0.375
'[08:40:06.805]',-0.225
'[08:40:06.813]',-0.135
'[08:40:06.820]',-0.135
'[08:40:06.828]',-0.145
'[08:40:06.836]',-0.155
'[08:40:06.844]',-0.145
'[08:40:06.852]',-0.135
'[08:40:06.859]',-0.135
'[08:40:06.867]',-0.145
'[08:40:06.875]',-0.135
'[08:40:06.883]',-0.125
'[08:40:06.891]',-0.125
'[08:40:06.898]',-0.115
'[08:40:06.906]',-0.115
'[08:40:06.914]',-0.105
'[08:40:06.922]',-0.095
'[08:40:06.930]',-0.085
'[08:40:06.938]',-0.055
'[08:40:06.945]',-0.055
'[08:40:06.953]',-0.035
'[08:40:06.961]',-0.025
'[08:40:06.969]',-0.015
'[08:40:06.977]',0.015
'[08:40:06.984]',0.035
'[08:40:06.992]',0.055
'[08:40:07.000]',0.085
'[08:40:07.008]',0.095
'[08:40:07.016]',0.145
'[08:40:07.023]',0.165
'[08:40:07.031]',0.185
'[08:40:07.039]',0.215
'[08:40:07.047]',0.225
'[08:40:07.055]',0.215
'[08:40:07.063]',0.215
'[08:40:07.070]',0.165
'[08:40:07.078]',0.135
'[08:40:07.086]',0.095
'[08:40:07.094]',0.045
'[08:40:07.102]',0.025
'[08:40:07.109]',-0.025
'[08:40:07.117]',-0.055
'[08:40:07.125]',-0.055
'[08:40:07.133]',-0.085
'[08:40:07.141]',-0.095
'[08:40:07.148]',-0.115
'[08:40:07.156]',-0.115
'[08:40:07.164]',-0.095
'[08:40:07.172]',-0.105
'[08:40:07.180]',-0.115
'[08:40:07.188]',-0.105
'[08:40:07.195]',-0.095
'[08:40:07.203]',-0.095
'[08:40:07.211]',-0.105
'[08:40:07.219]',-0.095
'[08:40:07.227]',-0.085
'[08:40:07.234]',-0.095
'[08:40:07.242]',-0.095
'[08:40:07.250]',-0.095
'[08:40:07.258]',-0.105
'[08:40:07.266]',-0.105
'[08:40:07.273]',-0.115
'[08:40:07.281]',-0.115
'[08:40:07.289]',-0.115
'[08:40:07.297]',-0.125
'[08:40:07.305]',-0.135
'[08:40:07.313]',-0.155
'[08:40:07.320]',-0.145
'[08:40:07.328]',-0.145
'[08:40:07.336]',-0.155
'[08:40:07.344]',-0.145
'[08:40:07.352]',-0.145
'[08:40:07.359]',-0.155
'[08:40:07.367]',-0.165
'[08:40:07.375]',-0.175
'[08:40:07.383]',-0.145
'[08:40:07.391]',-0.065
'[08:40:07.398]',-0.025
'[08:40:07.406]',-0.035
'[08:40:07.414]',-0.085
'[08:40:07.422]',-0.095
'[08:40:07.430]',-0.145
'[08:40:07.438]',-0.175
'[08:40:07.445]',-0.165
'[08:40:07.453]',-0.175
'[08:40:07.461]',-0.195
'[08:40:07.469]',-0.185
'[08:40:07.477]',-0.185
'[08:40:07.484]',-0.175
'[08:40:07.492]',-0.195
'[08:40:07.500]',-0.175
'[08:40:07.508]',-0.175
'[08:40:07.516]',-0.175
'[08:40:07.523]',-0.165
'[08:40:07.531]',-0.135
'[08:40:07.539]',-0.195
'[08:40:07.547]',-0.445
'[08:40:07.555]',-0.335
'[08:40:07.563]',0.205
'[08:40:07.570]',1.285
'[08:40:07.578]',1.785
'[08:40:07.586]',0.675
'[08:40:07.594]',-0.395
'[08:40:07.602]',-0.595
'[08:40:07.609]',-0.445
'[08:40:07.617]',-0.265
'[08:40:07.625]',-0.175
'[08:40:07.633]',-0.185
'[08:40:07.641]',-0.185
'[08:40:07.648]',-0.195
'[08:40:07.656]',-0.185
'[08:40:07.664]',-0.205
'[08:40:07.672]',-0.175
'[08:40:07.680]',-0.175
'[08:40:07.688]',-0.155
'[08:40:07.695]',-0.155
'[08:40:07.703]',-0.155
'[08:40:07.711]',-0.165
'[08:40:07.719]',-0.135
'[08:40:07.727]',-0.125
'[08:40:07.734]',-0.135
'[08:40:07.742]',-0.135
'[08:40:07.750]',-0.105
'[08:40:07.758]',-0.085
'[08:40:07.766]',-0.065
'[08:40:07.773]',-0.045
'[08:40:07.781]',-0.005
'[08:40:07.789]',0.015
'[08:40:07.797]',0.025
'[08:40:07.805]',0.045
'[08:40:07.813]',0.095
'[08:40:07.820]',0.105
'[08:40:07.828]',0.125
'[08:40:07.836]',0.145
'[08:40:07.844]',0.165
'[08:40:07.852]',0.155
'[08:40:07.859]',0.165
'[08:40:07.867]',0.135
'[08:40:07.875]',0.085
'[08:40:07.883]',0.025
'[08:40:07.891]',0.015
'[08:40:07.898]',-0.025
'[08:40:07.906]',-0.075
'[08:40:07.914]',-0.105
'[08:40:07.922]',-0.085
'[08:40:07.930]',-0.155
'[08:40:07.938]',-0.165
'[08:40:07.945]',-0.155
'[08:40:07.953]',-0.135
'[08:40:07.961]',-0.165
'[08:40:07.969]',-0.175
'[08:40:07.977]',-0.115
'[08:40:07.984]',-0.135
'[08:40:07.992]',-0.155
'[08:40:08.000]',-0.125
'[08:40:08.008]',-0.145
'[08:40:08.016]',-0.115
'[08:40:08.023]',-0.115
'[08:40:08.031]',-0.105
'[08:40:08.039]',-0.115
'[08:40:08.047]',-0.115
'[08:40:08.055]',-0.125
'[08:40:08.063]',-0.115
'[08:40:08.070]',-0.145
'[08:40:08.078]',-0.135
'[08:40:08.086]',-0.135
'[08:40:08.094]',-0.155
'[08:40:08.102]',-0.135
'[08:40:08.109]',-0.185
'[08:40:08.117]',-0.115
'[08:40:08.125]',-0.095
'[08:40:08.133]',-0.035
'[08:40:08.141]',-0.065
'[08:40:08.148]',-0.085
'[08:40:08.156]',-0.095
'[08:40:08.164]',-0.155
'[08:40:08.172]',-0.205
'[08:40:08.180]',-0.205
'[08:40:08.188]',-0.225
'[08:40:08.195]',-0.225
'[08:40:08.203]',-0.225
'[08:40:08.211]',-0.205
'[08:40:08.219]',-0.215
'[08:40:08.227]',-0.205
'[08:40:08.234]',-0.205
'[08:40:08.242]',-0.215
'[08:40:08.250]',-0.225
'[08:40:08.258]',-0.205
'[08:40:08.266]',-0.185
'[08:40:08.273]',-0.195
'[08:40:08.281]',-0.355
'[08:40:08.289]',-0.225
'[08:40:08.297]',0.295
'[08:40:08.305]',1.115
'[08:40:08.313]',1.495
'[08:40:08.320]',0.405
'[08:40:08.328]',-0.365
'[08:40:08.336]',-0.505
'[08:40:08.344]',-0.345
'[08:40:08.352]',-0.235
'[08:40:08.359]',-0.195
'[08:40:08.367]',-0.185
'[08:40:08.375]',-0.195
'[08:40:08.383]',-0.185
'[08:40:08.391]',-0.175
'[08:40:08.398]',-0.195
'[08:40:08.406]',-0.155
'[08:40:08.414]',-0.155
'[08:40:08.422]',-0.165
'[08:40:08.430]',-0.125
'[08:40:08.438]',-0.105
'[08:40:08.445]',-0.115
'[08:40:08.453]',-0.125
'[08:40:08.461]',-0.065
'[08:40:08.469]',-0.055
'[08:40:08.477]',-0.045
'[08:40:08.484]',-0.055
'[08:40:08.492]',-0.025
'[08:40:08.500]',-0.015
'[08:40:08.508]',0.005
'[08:40:08.516]',0.025
'[08:40:08.523]',0.055
'[08:40:08.531]',0.065
'[08:40:08.539]',0.085
'[08:40:08.547]',0.115
'[08:40:08.555]',0.125
'[08:40:08.563]',0.155
'[08:40:08.570]',0.165
'[08:40:08.578]',0.195
'[08:40:08.586]',0.175
'[08:40:08.594]',0.165
'[08:40:08.602]',0.125
'[08:40:08.609]',0.105
'[08:40:08.617]',0.025
'[08:40:08.625]',-0.015
'[08:40:08.633]',-0.045
'[08:40:08.641]',-0.085
'[08:40:08.648]',-0.115
'[08:40:08.656]',-0.125
'[08:40:08.664]',-0.145
'[08:40:08.672]',-0.185
'[08:40:08.680]',-0.175
'[08:40:08.688]',-0.195
'[08:40:08.695]',-0.165
'[08:40:08.703]',-0.185
'[08:40:08.711]',-0.185
'[08:40:08.719]',-0.155
'[08:40:08.727]',-0.155
'[08:40:08.734]',-0.165
'[08:40:08.742]',-0.155
'[08:40:08.750]',-0.145
'[08:40:08.758]',-0.135
'[08:40:08.766]',-0.145
'[08:40:08.773]',-0.155
'[08:40:08.781]',-0.135
'[08:40:08.789]',-0.145
'[08:40:08.797]',-0.155
'[08:40:08.805]',-0.145
'[08:40:08.813]',-0.155
'[08:40:08.820]',-0.185
'[08:40:08.828]',-0.155
'[08:40:08.836]',-0.115
'[08:40:08.844]',-0.075
'[08:40:08.852]',-0.035
'[08:40:08.859]',-0.085
'[08:40:08.867]',-0.105
'[08:40:08.875]',-0.125
'[08:40:08.883]',-0.195
'[08:40:08.891]',-0.195
'[08:40:08.898]',-0.215
'[08:40:08.906]',-0.215
'[08:40:08.914]',-0.205
'[08:40:08.922]',-0.205
'[08:40:08.930]',-0.225
'[08:40:08.938]',-0.215
'[08:40:08.945]',-0.215
'[08:40:08.953]',-0.205
'[08:40:08.961]',-0.215
'[08:40:08.969]',-0.205
'[08:40:08.977]',-0.195
'[08:40:08.984]',-0.175
'[08:40:08.992]',-0.295
'[08:40:09.000]',-0.495
'[08:40:09.008]',-0.275
'[08:40:09.016]',0.485
'[08:40:09.023]',1.555
'[08:40:09.031]',1.675
'[08:40:09.039]',0.065
'[08:40:09.047]',-0.635
'[08:40:09.055]',-0.565
'[08:40:09.063]',-0.345
'[08:40:09.070]',-0.225
'[08:40:09.078]',-0.205
'[08:40:09.086]',-0.215
'[08:40:09.094]',-0.215
'[08:40:09.102]',-0.205
'[08:40:09.109]',-0.205
'[08:40:09.117]',-0.225
'[08:40:09.125]',-0.215
'[08:40:09.133]',-0.205
'[08:40:09.141]',-0.195
'[08:40:09.148]',-0.195
'[08:40:09.156]',-0.165
'[08:40:09.164]',-0.155
'[08:40:09.172]',-0.155
'[08:40:09.180]',-0.165
'[08:40:09.188]',-0.145
'[08:40:09.195]',-0.115
'[08:40:09.203]',-0.105
'[08:40:09.211]',-0.085
'[08:40:09.219]',-0.045
'[08:40:09.227]',-0.045
'[08:40:09.234]',-0.025
'[08:40:09.242]',0.005
'[08:40:09.250]',0.025
'[08:40:09.258]',0.065
'[08:40:09.266]',0.095
'[08:40:09.273]',0.115
'[08:40:09.281]',0.145
'[08:40:09.289]',0.155
'[08:40:09.297]',0.155
'[08:40:09.305]',0.145
'[08:40:09.313]',0.105
'[08:40:09.320]',0.085
'[08:40:09.328]',0.025
'[08:40:09.336]',-0.025
'[08:40:09.344]',-0.045
'[08:40:09.352]',-0.075
'[08:40:09.359]',-0.105
'[08:40:09.367]',-0.125
'[08:40:09.375]',-0.155
'[08:40:09.383]',-0.155
'[08:40:09.391]',-0.155
'[08:40:09.398]',-0.155
'[08:40:09.406]',-0.155
'[08:40:09.414]',-0.155
'[08:40:09.422]',-0.145
'[08:40:09.430]',-0.155
'[08:40:09.438]',-0.175
'[08:40:09.445]',-0.155
'[08:40:09.453]',-0.145
'[08:40:09.461]',-0.135
'[08:40:09.469]',-0.135
'[08:40:09.477]',-0.145
'[08:40:09.484]',-0.135
'[08:40:09.492]',-0.135
'[08:40:09.500]',-0.145
'[08:40:09.508]',-0.145
'[08:40:09.516]',-0.145
'[08:40:09.523]',-0.145
'[08:40:09.531]',-0.145
'[08:40:09.539]',-0.145
'[08:40:09.547]',-0.155
'[08:40:09.555]',-0.165
'[08:40:09.563]',-0.175
'[08:40:09.570]',-0.165
'[08:40:09.578]',-0.095
'[08:40:09.586]',-0.045
'[08:40:09.594]',-0.065
'[08:40:09.602]',-0.095
'[08:40:09.609]',-0.115
'[08:40:09.617]',-0.155
'[08:40:09.625]',-0.175
'[08:40:09.633]',-0.205
'[08:40:09.641]',-0.205
'[08:40:09.648]',-0.215
'[08:40:09.656]',-0.215
'[08:40:09.664]',-0.195
'[08:40:09.672]',-0.205
'[08:40:09.680]',-0.215
'[08:40:09.688]',-0.205
'[08:40:09.695]',-0.205
'[08:40:09.703]',-0.205
'[08:40:09.711]',-0.195
'[08:40:09.719]',-0.165
'[08:40:09.727]',-0.235
'[08:40:09.734]',-0.435
'[08:40:09.742]',-0.205
'[08:40:09.750]',0.455
'[08:40:09.758]',1.485
'[08:40:09.766]',1.435
'[08:40:09.773]',-0.055
'[08:40:09.781]',-0.625
'[08:40:09.789]',-0.465
'[08:40:09.797]',-0.255
'[08:40:09.805]',-0.185
'[08:40:09.813]',-0.215
'[08:40:09.820]',-0.205
'[08:40:09.828]',-0.205
'[08:40:09.836]',-0.205
'[08:40:09.844]',-0.195
'[08:40:09.852]',-0.195
'[08:40:09.859]',-0.195
'[08:40:09.867]',-0.185
'[08:40:09.875]',-0.185
'[08:40:09.883]',-0.175
'[08:40:09.891]',-0.155
'[08:40:09.898]',-0.145
'[08:40:09.906]',-0.125
'[08:40:09.914]',-0.125
'[08:40:09.922]',-0.115
'[08:40:09.930]',-0.095
'[08:40:09.938]',-0.085
'[08:40:09.945]',-0.055
'[08:40:09.953]',-0.035
'[08:40:09.961]',-0.025
'[08:40:09.969]',0.015
'[08:40:09.977]',0.045
'[08:40:09.984]',0.065
'[08:40:09.992]',0.095
