'[08:04:00.000]',-0.165
'[08:04:00.008]',-0.155
'[08:04:00.016]',-0.195
'[08:04:00.023]',-0.205
'[08:04:00.031]',-0.185
'[08:04:00.039]',-0.155
'[08:04:00.047]',-0.135
'[08:04:00.055]',-0.095
'[08:04:00.063]',-0.075
'[08:04:00.070]',-0.065
'[08:04:00.078]',-0.065
'[08:04:00.086]',-0.125
'[08:04:00.094]',-0.125
'[08:04:00.102]',-0.125
'[08:04:00.109]',-0.115
'[08:04:00.117]',-0.125
'[08:04:00.125]',-0.165
'[08:04:00.133]',-0.115
'[08:04:00.141]',-0.145
'[08:04:00.148]',-0.115
'[08:04:00.156]',-0.135
'[08:04:00.164]',-0.135
'[08:04:00.172]',-0.125
'[08:04:00.180]',-0.175
'[08:04:00.188]',-0.145
'[08:04:00.195]',-0.125
'[08:04:00.203]',-0.145
'[08:04:00.211]',-0.145
'[08:04:00.219]',-0.135
'[08:04:00.227]',-0.165
'[08:04:00.234]',-0.155
'[08:04:00.242]',-0.095
'[08:04:00.250]',-0.105
'[08:04:00.258]',-0.075
'[08:04:00.266]',-0.085
'[08:04:00.273]',0.025
'[08:04:00.281]',0.025
'[08:04:00.289]',-0.025
'[08:04:00.297]',-0.085
'[08:04:00.305]',-0.115
'[08:04:00.313]',-0.145
'[08:04:00.320]',-0.125
'[08:04:00.328]',-0.155
'[08:04:00.336]',-0.205
'[08:04:00.344]',-0.215
'[08:04:00.352]',-0.215
'[08:04:00.359]',-0.165
'[08:04:00.367]',-0.165
'[08:04:00.375]',-0.155
'[08:04:00.383]',-0.615
'[08:04:00.391]',-0.855
'[08:04:00.398]',-0.185
'[08:04:00.406]',1.295
'[08:04:00.414]',2.575
'[08:04:00.422]',2.675
'[08:04:00.430]',2.445
'[08:04:00.438]',0.735
'[08:04:00.445]',-0.415
'[08:04:00.453]',-0.295
'[08:04:00.461]',-0.285
'[08:04:00.469]',-0.345
'[08:04:00.477]',-0.365
'[08:04:00.484]',-0.345
'[08:04:00.492]',-0.305
'[08:04:00.500]',-0.315
'[08:04:00.508]',-0.305
'[08:04:00.516]',-0.265
'[08:04:00.523]',-0.235
'[08:04:00.531]',-0.265
'[08:04:00.539]',-0.245
'[08:04:00.547]',-0.215
'[08:04:00.555]',-0.195
'[08:04:00.563]',-0.175
'[08:04:00.570]',-0.185
'[08:04:00.578]',-0.155
'[08:04:00.586]',-0.125
'[08:04:00.594]',-0.145
'[08:04:00.602]',-0.125
'[08:04:00.609]',-0.145
'[08:04:00.617]',-0.155
'[08:04:00.625]',-0.185
'[08:04:00.633]',-0.175
'[08:04:00.641]',-0.175
'[08:04:00.648]',-0.165
'[08:04:00.656]',-0.165
'[08:04:00.664]',-0.115
'[08:04:00.672]',-0.065
'[08:04:00.680]',-0.095
'[08:04:00.688]',-0.115
'[08:04:00.695]',-0.075
'[08:04:00.703]',-0.115
'[08:04:00.711]',-0.155
'[08:04:00.719]',-0.105
'[08:04:00.727]',-0.125
'[08:04:00.734]',-0.135
'[08:04:00.742]',-0.125
'[08:04:00.750]',-0.115
'[08:04:00.758]',-0.105
'[08:04:00.766]',-0.135
'[08:04:00.773]',-0.135
'[08:04:00.781]',-0.135
'[08:04:00.789]',-0.145
'[08:04:00.797]',-0.125
'[08:04:00.805]',-0.115
'[08:04:00.813]',-0.135
'[08:04:00.820]',-0.135
'[08:04:00.828]',-0.165
'[08:04:00.836]',-0.155
'[08:04:00.844]',-0.115
'[08:04:00.852]',-0.085
'[08:04:00.859]',-0.055
'[08:04:00.867]',-0.055
'[08:04:00.875]',-0.045
'[08:04:00.883]',0.065
'[08:04:00.891]',0.005
'[08:04:00.898]',-0.015
'[08:04:00.906]',-0.055
'[08:04:00.914]',-0.115
'[08:04:00.922]',-0.135
'[08:04:00.930]',-0.135
'[08:04:00.938]',-0.175
'[08:04:00.945]',-0.205
'[08:04:00.953]',-0.225
'[08:04:00.961]',-0.175
'[08:04:00.969]',-0.175
'[08:04:00.977]',-0.155
'[08:04:00.984]',-0.255
'[08:04:00.992]',-0.875
'[08:04:01.000]',-0.645
'[08:04:01.008]',0.645
'[08:04:01.016]',2.315
'[08:04:01.023]',2.925
'[08:04:01.031]',2.725
'[08:04:01.039]',1.225
'[08:04:01.047]',-0.185
'[08:04:01.055]',-0.275
'[08:04:01.063]',-0.275
'[08:04:01.070]',-0.285
'[08:04:01.078]',-0.285
'[08:04:01.086]',-0.335
'[08:04:01.094]',-0.305
'[08:04:01.102]',-0.285
'[08:04:01.109]',-0.275
'[08:04:01.117]',-0.275
'[08:04:01.125]',-0.245
'[08:04:01.133]',-0.245
'[08:04:01.141]',-0.225
'[08:04:01.148]',-0.195
'[08:04:01.156]',-0.205
'[08:04:01.164]',-0.165
'[08:04:01.172]',-0.125
'[08:04:01.180]',-0.135
'[08:04:01.188]',-0.105
'[08:04:01.195]',-0.115
'[08:04:01.203]',-0.115
'[08:04:01.211]',-0.095
'[08:04:01.219]',-0.155
'[08:04:01.227]',-0.165
'[08:04:01.234]',-0.185
'[08:04:01.242]',-0.185
'[08:04:01.250]',-0.175
'[08:04:01.258]',-0.195
'[08:04:01.266]',-0.135
'[08:04:01.273]',-0.105
'[08:04:01.281]',-0.105
'[08:04:01.289]',-0.095
'[08:04:01.297]',-0.095
'[08:04:01.305]',-0.115
'[08:04:01.313]',-0.105
'[08:04:01.320]',-0.115
'[08:04:01.328]',-0.115
'[08:04:01.336]',-0.125
'[08:04:01.344]',-0.115
'[08:04:01.352]',-0.115
'[08:04:01.359]',-0.115
'[08:04:01.367]',-0.115
'[08:04:01.375]',-0.105
'[08:04:01.383]',-0.105
'[08:04:01.391]',-0.095
'[08:04:01.398]',-0.125
'[08:04:01.406]',-0.115
'[08:04:01.414]',-0.105
'[08:04:01.422]',-0.095
'[08:04:01.430]',-0.105
'[08:04:01.438]',-0.105
'[08:04:01.445]',-0.105
'[08:04:01.453]',-0.075
'[08:04:01.461]',-0.045
'[08:04:01.469]',-0.035
'[08:04:01.477]',-0.025
'[08:04:01.484]',0.065
'[08:04:01.492]',0.015
'[08:04:01.500]',-0.055
'[08:04:01.508]',-0.095
'[08:04:01.516]',-0.045
'[08:04:01.523]',-0.095
'[08:04:01.531]',-0.145
'[08:04:01.539]',-0.155
'[08:04:01.547]',-0.155
'[08:04:01.555]',-0.185
'[08:04:01.563]',-0.185
'[08:04:01.570]',-0.165
'[08:04:01.578]',-0.155
'[08:04:01.586]',-0.155
'[08:04:01.594]',-0.685
'[08:04:01.602]',-0.845
'[08:04:01.609]',0.055
'[08:04:01.617]',1.645
'[08:04:01.625]',2.725
'[08:04:01.633]',2.855
'[08:04:01.641]',2.255
'[08:04:01.648]',0.495
'[08:04:01.656]',-0.255
'[08:04:01.664]',-0.215
'[08:04:01.672]',-0.255
'[08:04:01.680]',-0.295
'[08:04:01.688]',-0.305
'[08:04:01.695]',-0.335
'[08:04:01.703]',-0.305
'[08:04:01.711]',-0.345
'[08:04:01.719]',-0.305
'[08:04:01.727]',-0.265
'[08:04:01.734]',-0.265
'[08:04:01.742]',-0.265
'[08:04:01.750]',-0.205
'[08:04:01.758]',-0.215
'[08:04:01.766]',-0.185
'[08:04:01.773]',-0.165
'[08:04:01.781]',-0.135
'[08:04:01.789]',-0.155
'[08:04:01.797]',-0.105
'[08:04:01.805]',-0.125
'[08:04:01.813]',-0.145
'[08:04:01.820]',-0.135
'[08:04:01.828]',-0.115
'[08:04:01.836]',-0.175
'[08:04:01.844]',-0.195
'[08:04:01.852]',-0.215
'[08:04:01.859]',-0.185
'[08:04:01.867]',-0.185
'[08:04:01.875]',-0.155
'[08:04:01.883]',-0.125
'[08:04:01.891]',-0.125
'[08:04:01.898]',-0.135
'[08:04:01.906]',-0.105
'[08:04:01.914]',-0.125
'[08:04:01.922]',-0.135
'[08:04:01.930]',-0.165
'[08:04:01.938]',-0.175
'[08:04:01.945]',-0.175
'[08:04:01.953]',-0.095
'[08:04:01.961]',-0.125
'[08:04:01.969]',-0.135
'[08:04:01.977]',-0.145
'[08:04:01.984]',-0.125
'[08:04:01.992]',-0.115
'[08:04:02.000]',-0.095
'[08:04:02.008]',-0.125
'[08:04:02.016]',-0.155
'[08:04:02.023]',-0.125
'[08:04:02.031]',-0.125
'[08:04:02.039]',-0.165
'[08:04:02.047]',-0.135
'[08:04:02.055]',-0.115
'[08:04:02.063]',-0.055
'[08:04:02.070]',-0.035
'[08:04:02.078]',-0.085
'[08:04:02.086]',-0.045
'[08:04:02.094]',0.045
'[08:04:02.102]',-0.005
'[08:04:02.109]',-0.045
'[08:04:02.117]',-0.125
'[08:04:02.125]',-0.145
'[08:04:02.133]',-0.115
'[08:04:02.141]',-0.135
'[08:04:02.148]',-0.175
'[08:04:02.156]',-0.225
'[08:04:02.164]',-0.205
'[08:04:02.172]',-0.205
'[08:04:02.180]',-0.245
'[08:04:02.188]',-0.185
'[08:04:02.195]',-0.195
'[08:04:02.203]',-0.835
'[08:04:02.211]',-0.775
'[08:04:02.219]',0.295
'[08:04:02.227]',2.085
'[08:04:02.234]',2.885
'[08:04:02.242]',2.645
'[08:04:02.250]',1.575
'[08:04:02.258]',0.005
'[08:04:02.266]',-0.305
'[08:04:02.273]',-0.265
'[08:04:02.281]',-0.315
'[08:04:02.289]',-0.355
'[08:04:02.297]',-0.355
'[08:04:02.305]',-0.365
'[08:04:02.313]',-0.375
'[08:04:02.320]',-0.335
'[08:04:02.328]',-0.295
'[08:04:02.336]',-0.285
'[08:04:02.344]',-0.285
'[08:04:02.352]',-0.265
'[08:04:02.359]',-0.255
'[08:04:02.367]',-0.245
'[08:04:02.375]',-0.205
'[08:04:02.383]',-0.175
'[08:04:02.391]',-0.185
'[08:04:02.398]',-0.145
'[08:04:02.406]',-0.155
'[08:04:02.414]',-0.175
'[08:04:02.422]',-0.145
'[08:04:02.430]',-0.215
'[08:04:02.438]',-0.215
'[08:04:02.445]',-0.215
'[08:04:02.453]',-0.265
'[08:04:02.461]',-0.245
'[08:04:02.469]',-0.225
'[08:04:02.477]',-0.175
'[08:04:02.484]',-0.185
'[08:04:02.492]',-0.175
'[08:04:02.500]',-0.175
'[08:04:02.508]',-0.175
'[08:04:02.516]',-0.165
'[08:04:02.523]',-0.175
'[08:04:02.531]',-0.185
'[08:04:02.539]',-0.205
'[08:04:02.547]',-0.185
'[08:04:02.555]',-0.185
'[08:04:02.563]',-0.185
'[08:04:02.570]',-0.165
'[08:04:02.578]',-0.175
'[08:04:02.586]',-0.195
'[08:04:02.594]',-0.165
'[08:04:02.602]',-0.185
'[08:04:02.609]',-0.195
'[08:04:02.617]',-0.165
'[08:04:02.625]',-0.175
'[08:04:02.633]',-0.175
'[08:04:02.641]',-0.175
'[08:04:02.648]',-0.185
'[08:04:02.656]',-0.185
'[08:04:02.664]',-0.195
'[08:04:02.672]',-0.205
'[08:04:02.680]',-0.125
'[08:04:02.688]',-0.125
'[08:04:02.695]',-0.145
'[08:04:02.703]',-0.095
'[08:04:02.711]',-0.025
'[08:04:02.719]',-0.035
'[08:04:02.727]',-0.075
'[08:04:02.734]',-0.115
'[08:04:02.742]',-0.145
'[08:04:02.750]',-0.175
'[08:04:02.758]',-0.215
'[08:04:02.766]',-0.225
'[08:04:02.773]',-0.235
'[08:04:02.781]',-0.245
'[08:04:02.789]',-0.255
'[08:04:02.797]',-0.245
'[08:04:02.805]',-0.235
'[08:04:02.813]',-0.185
'[08:04:02.820]',-0.725
'[08:04:02.828]',-0.905
'[08:04:02.836]',-0.105
'[08:04:02.844]',1.645
'[08:04:02.852]',2.615
'[08:04:02.859]',2.535
'[08:04:02.867]',1.825
'[08:04:02.875]',0.275
'[08:04:02.883]',-0.345
'[08:04:02.891]',-0.325
'[08:04:02.898]',-0.335
'[08:04:02.906]',-0.365
'[08:04:02.914]',-0.375
'[08:04:02.922]',-0.395
'[08:04:02.930]',-0.375
'[08:04:02.938]',-0.395
'[08:04:02.945]',-0.355
'[08:04:02.953]',-0.325
'[08:04:02.961]',-0.345
'[08:04:02.969]',-0.325
'[08:04:02.977]',-0.285
'[08:04:02.984]',-0.285
'[08:04:02.992]',-0.255
'[08:04:03.000]',-0.275
'[08:04:03.008]',-0.295
'[08:04:03.016]',-0.135
'[08:04:03.023]',-0.185
'[08:04:03.031]',-0.185
'[08:04:03.039]',-0.185
'[08:04:03.047]',-0.215
'[08:04:03.055]',-0.215
'[08:04:03.063]',-0.285
'[08:04:03.070]',-0.295
'[08:04:03.078]',-0.305
'[08:04:03.086]',-0.225
'[08:04:03.094]',-0.195
'[08:04:03.102]',-0.155
'[08:04:03.109]',-0.145
'[08:04:03.117]',-0.175
'[08:04:03.125]',-0.165
'[08:04:03.133]',-0.205
'[08:04:03.141]',-0.145
'[08:04:03.148]',-0.185
'[08:04:03.156]',-0.215
'[08:04:03.164]',-0.215
'[08:04:03.172]',-0.185
'[08:04:03.180]',-0.195
'[08:04:03.188]',-0.255
'[08:04:03.195]',-0.185
'[08:04:03.203]',-0.205
'[08:04:03.211]',-0.225
'[08:04:03.219]',-0.165
'[08:04:03.227]',-0.155
'[08:04:03.234]',-0.185
'[08:04:03.242]',-0.205
'[08:04:03.250]',-0.205
'[08:04:03.258]',-0.215
'[08:04:03.266]',-0.175
'[08:04:03.273]',-0.185
'[08:04:03.281]',-0.215
'[08:04:03.289]',-0.185
'[08:04:03.297]',-0.125
'[08:04:03.305]',-0.125
'[08:04:03.313]',-0.155
'[08:04:03.320]',-0.095
'[08:04:03.328]',0.005
'[08:04:03.336]',-0.065
'[08:04:03.344]',-0.135
'[08:04:03.352]',-0.145
'[08:04:03.359]',-0.105
'[08:04:03.367]',-0.165
'[08:04:03.375]',-0.215
'[08:04:03.383]',-0.225
'[08:04:03.391]',-0.265
'[08:04:03.398]',-0.235
'[08:04:03.406]',-0.265
'[08:04:03.414]',-0.275
'[08:04:03.422]',-0.205
'[08:04:03.430]',-0.325
'[08:04:03.438]',-0.915
'[08:04:03.445]',-0.695
'[08:04:03.453]',0.545
'[08:04:03.461]',2.155
'[08:04:03.469]',2.655
'[08:04:03.477]',2.375
'[08:04:03.484]',1.055
'[08:04:03.492]',-0.215
'[08:04:03.500]',-0.335
'[08:04:03.508]',-0.345
'[08:04:03.516]',-0.375
'[08:04:03.523]',-0.365
'[08:04:03.531]',-0.385
'[08:04:03.539]',-0.395
'[08:04:03.547]',-0.365
'[08:04:03.555]',-0.375
'[08:04:03.563]',-0.355
'[08:04:03.570]',-0.325
'[08:04:03.578]',-0.315
'[08:04:03.586]',-0.275
'[08:04:03.594]',-0.245
'[08:04:03.602]',-0.235
'[08:04:03.609]',-0.215
'[08:04:03.617]',-0.225
'[08:04:03.625]',-0.205
'[08:04:03.633]',-0.195
'[08:04:03.641]',-0.205
'[08:04:03.648]',-0.185
'[08:04:03.656]',-0.185
'[08:04:03.664]',-0.205
'[08:04:03.672]',-0.225
'[08:04:03.680]',-0.215
'[08:04:03.688]',-0.215
'[08:04:03.695]',-0.255
'[08:04:03.703]',-0.235
'[08:04:03.711]',-0.185
'[08:04:03.719]',-0.165
'[08:04:03.727]',-0.145
'[08:04:03.734]',-0.135
'[08:04:03.742]',-0.155
'[08:04:03.750]',-0.155
'[08:04:03.758]',-0.145
'[08:04:03.766]',-0.135
'[08:04:03.773]',-0.155
'[08:04:03.781]',-0.165
'[08:04:03.789]',-0.165
'[08:04:03.797]',-0.145
'[08:04:03.805]',-0.165
'[08:04:03.813]',-0.185
'[08:04:03.820]',-0.145
'[08:04:03.828]',-0.175
'[08:04:03.836]',-0.135
'[08:04:03.844]',-0.165
'[08:04:03.852]',-0.135
'[08:04:03.859]',-0.125
'[08:04:03.867]',-0.135
'[08:04:03.875]',-0.145
'[08:04:03.883]',-0.145
'[08:04:03.891]',-0.125
'[08:04:03.898]',-0.135
'[08:04:03.906]',-0.115
'[08:04:03.914]',-0.075
'[08:04:03.922]',-0.075
'[08:04:03.930]',-0.095
'[08:04:03.938]',0.005
'[08:04:03.945]',0.075
'[08:04:03.953]',-0.005
'[08:04:03.961]',-0.055
'[08:04:03.969]',-0.095
'[08:04:03.977]',-0.075
'[08:04:03.984]',-0.115
'[08:04:03.992]',-0.145
'[08:04:04.000]',-0.225
'[08:04:04.008]',-0.175
'[08:04:04.016]',-0.165
'[08:04:04.023]',-0.195
'[08:04:04.031]',-0.155
'[08:04:04.039]',-0.135
'[08:04:04.047]',-0.185
'[08:04:04.055]',-0.745
'[08:04:04.063]',-0.695
'[08:04:04.070]',0.475
'[08:04:04.078]',2.205
'[08:04:04.086]',2.795
'[08:04:04.094]',2.585
'[08:04:04.102]',1.415
'[08:04:04.109]',-0.055
'[08:04:04.117]',-0.295
'[08:04:04.125]',-0.265
'[08:04:04.133]',-0.295
'[08:04:04.141]',-0.285
'[08:04:04.148]',-0.285
'[08:04:04.156]',-0.305
'[08:04:04.164]',-0.295
'[08:04:04.172]',-0.255
'[08:04:04.180]',-0.275
'[08:04:04.188]',-0.275
'[08:04:04.195]',-0.225
'[08:04:04.203]',-0.195
'[08:04:04.211]',-0.185
'[08:04:04.219]',-0.175
'[08:04:04.227]',-0.155
'[08:04:04.234]',-0.145
'[08:04:04.242]',-0.145
'[08:04:04.250]',-0.115
'[08:04:04.258]',-0.135
'[08:04:04.266]',-0.115
'[08:04:04.273]',-0.105
'[08:04:04.281]',-0.165
'[08:04:04.289]',-0.145
'[08:04:04.297]',-0.195
'[08:04:04.305]',-0.165
'[08:04:04.313]',-0.125
'[08:04:04.320]',-0.145
'[08:04:04.328]',-0.105
'[08:04:04.336]',-0.055
'[08:04:04.344]',-0.075
'[08:04:04.352]',-0.075
'[08:04:04.359]',-0.095
'[08:04:04.367]',-0.065
'[08:04:04.375]',-0.075
'[08:04:04.383]',-0.105
'[08:04:04.391]',-0.095
'[08:04:04.398]',-0.085
'[08:04:04.406]',-0.135
'[08:04:04.414]',-0.125
'[08:04:04.422]',-0.095
'[08:04:04.430]',-0.115
'[08:04:04.438]',-0.095
'[08:04:04.445]',-0.115
'[08:04:04.453]',-0.105
'[08:04:04.461]',-0.105
'[08:04:04.469]',-0.105
'[08:04:04.477]',-0.165
'[08:04:04.484]',-0.145
'[08:04:04.492]',-0.065
'[08:04:04.500]',-0.095
'[08:04:04.508]',-0.095
'[08:04:04.516]',-0.065
'[08:04:04.523]',-0.015
'[08:04:04.531]',-0.035
'[08:04:04.539]',-0.025
'[08:04:04.547]',0.085
'[08:04:04.555]',0.015
'[08:04:04.563]',-0.045
'[08:04:04.570]',-0.085
'[08:04:04.578]',-0.085
'[08:04:04.586]',-0.105
'[08:04:04.594]',-0.155
'[08:04:04.602]',-0.155
'[08:04:04.609]',-0.155
'[08:04:04.617]',-0.185
'[08:04:04.625]',-0.175
'[08:04:04.633]',-0.175
'[08:04:04.641]',-0.135
'[08:04:04.648]',-0.305
'[08:04:04.656]',-0.855
'[08:04:04.664]',-0.455
'[08:04:04.672]',0.895
'[08:04:04.680]',2.455
'[08:04:04.688]',2.815
'[08:04:04.695]',2.545
'[08:04:04.703]',1.225
'[08:04:04.711]',-0.125
'[08:04:04.719]',-0.325
'[08:04:04.727]',-0.255
'[08:04:04.734]',-0.285
'[08:04:04.742]',-0.305
'[08:04:04.750]',-0.335
'[08:04:04.758]',-0.305
'[08:04:04.766]',-0.275
'[08:04:04.773]',-0.275
'[08:04:04.781]',-0.305
'[08:04:04.789]',-0.235
'[08:04:04.797]',-0.235
'[08:04:04.805]',-0.215
'[08:04:04.813]',-0.205
'[08:04:04.820]',-0.175
'[08:04:04.828]',-0.155
'[08:04:04.836]',-0.135
'[08:04:04.844]',-0.155
'[08:04:04.852]',-0.095
'[08:04:04.859]',-0.105
'[08:04:04.867]',-0.155
'[08:04:04.875]',-0.135
'[08:04:04.883]',-0.105
'[08:04:04.891]',-0.145
'[08:04:04.898]',-0.135
'[08:04:04.906]',-0.195
'[08:04:04.914]',-0.165
'[08:04:04.922]',-0.115
'[08:04:04.930]',-0.105
'[08:04:04.938]',-0.125
'[08:04:04.945]',-0.085
'[08:04:04.953]',-0.075
'[08:04:04.961]',-0.075
'[08:04:04.969]',-0.075
'[08:04:04.977]',-0.105
'[08:04:04.984]',-0.135
'[08:04:04.992]',-0.125
'[08:04:05.000]',-0.115
'[08:04:05.008]',-0.095
'[08:04:05.016]',-0.115
'[08:04:05.023]',-0.135
'[08:04:05.031]',-0.075
'[08:04:05.039]',-0.095
'[08:04:05.047]',-0.105
'[08:04:05.055]',-0.115
'[08:04:05.063]',-0.105
'[08:04:05.070]',-0.105
'[08:04:05.078]',-0.095
'[08:04:05.086]',-0.085
'[08:04:05.094]',-0.075
'[08:04:05.102]',-0.095
'[08:04:05.109]',-0.095
'[08:04:05.117]',-0.035
'[08:04:05.125]',-0.005
'[08:04:05.133]',-0.055
'[08:04:05.141]',-0.015
'[08:04:05.148]',0.085
'[08:04:05.156]',0.045
'[08:04:05.164]',-0.005
'[08:04:05.172]',-0.065
'[08:04:05.180]',-0.055
'[08:04:05.188]',-0.055
'[08:04:05.195]',-0.085
'[08:04:05.203]',-0.125
'[08:04:05.211]',-0.185
'[08:04:05.219]',-0.125
'[08:04:05.227]',-0.145
'[08:04:05.234]',-0.155
'[08:04:05.242]',-0.125
'[08:04:05.250]',-0.155
'[08:04:05.258]',-0.735
'[08:04:05.266]',-0.715
'[08:04:05.273]',0.385
'[08:04:05.281]',2.005
'[08:04:05.289]',2.805
'[08:04:05.297]',2.735
'[08:04:05.305]',1.635
'[08:04:05.313]',0.075
'[08:04:05.320]',-0.205
'[08:04:05.328]',-0.215
'[08:04:05.336]',-0.225
'[08:04:05.344]',-0.275
'[08:04:05.352]',-0.305
'[08:04:05.359]',-0.285
'[08:04:05.367]',-0.275
'[08:04:05.375]',-0.265
'[08:04:05.383]',-0.255
'[08:04:05.391]',-0.275
'[08:04:05.398]',-0.225
'[08:04:05.406]',-0.175
'[08:04:05.414]',-0.195
'[08:04:05.422]',-0.175
'[08:04:05.430]',-0.125
'[08:04:05.438]',-0.075
'[08:04:05.445]',-0.105
'[08:04:05.453]',-0.075
'[08:04:05.461]',-0.125
'[08:04:05.469]',-0.095
'[08:04:05.477]',-0.045
'[08:04:05.484]',-0.085
'[08:04:05.492]',-0.145
'[08:04:05.500]',-0.185
'[08:04:05.508]',-0.255
'[08:04:05.516]',-0.205
'[08:04:05.523]',-0.175
'[08:04:05.531]',-0.145
'[08:04:05.539]',-0.165
'[08:04:05.547]',-0.115
'[08:04:05.555]',-0.085
'[08:04:05.563]',-0.085
'[08:04:05.570]',-0.105
'[08:04:05.578]',-0.115
'[08:04:05.586]',-0.105
'[08:04:05.594]',-0.135
'[08:04:05.602]',-0.145
'[08:04:05.609]',-0.105
'[08:04:05.617]',-0.125
'[08:04:05.625]',-0.135
'[08:04:05.633]',-0.115
'[08:04:05.641]',-0.105
'[08:04:05.648]',-0.125
'[08:04:05.656]',-0.125
'[08:04:05.664]',-0.165
'[08:04:05.672]',-0.095
'[08:04:05.680]',-0.075
'[08:04:05.688]',-0.105
'[08:04:05.695]',-0.125
'[08:04:05.703]',-0.135
'[08:04:05.711]',-0.115
'[08:04:05.719]',-0.115
'[08:04:05.727]',-0.115
'[08:04:05.734]',-0.035
'[08:04:05.742]',-0.045
'[08:04:05.750]',-0.065
'[08:04:05.758]',0.025
'[08:04:05.766]',0.045
'[08:04:05.773]',-0.025
'[08:04:05.781]',-0.075
'[08:04:05.789]',-0.105
'[08:04:05.797]',-0.115
'[08:04:05.805]',-0.115
'[08:04:05.813]',-0.145
'[08:04:05.820]',-0.175
'[08:04:05.828]',-0.195
'[08:04:05.836]',-0.255
'[08:04:05.844]',-0.185
'[08:04:05.852]',-0.155
'[08:04:05.859]',-0.135
'[08:04:05.867]',-0.405
'[08:04:05.875]',-0.805
'[08:04:05.883]',-0.445
'[08:04:05.891]',1.025
'[08:04:05.898]',2.465
'[08:04:05.906]',2.855
'[08:04:05.914]',2.465
'[08:04:05.922]',0.995
'[08:04:05.930]',-0.105
'[08:04:05.938]',-0.225
'[08:04:05.945]',-0.265
'[08:04:05.953]',-0.295
'[08:04:05.961]',-0.335
'[08:04:05.969]',-0.325
'[08:04:05.977]',-0.325
'[08:04:05.984]',-0.335
'[08:04:05.992]',-0.305
'[08:04:06.000]',-0.295
'[08:04:06.008]',-0.255
'[08:04:06.016]',-0.255
'[08:04:06.023]',-0.225
'[08:04:06.031]',-0.205
'[08:04:06.039]',-0.205
'[08:04:06.047]',-0.185
'[08:04:06.055]',-0.155
'[08:04:06.063]',-0.135
'[08:04:06.070]',-0.105
'[08:04:06.078]',-0.095
'[08:04:06.086]',-0.125
'[08:04:06.094]',-0.135
'[08:04:06.102]',-0.175
'[08:04:06.109]',-0.185
'[08:04:06.117]',-0.155
'[08:04:06.125]',-0.205
'[08:04:06.133]',-0.215
'[08:04:06.141]',-0.195
'[08:04:06.148]',-0.155
'[08:04:06.156]',-0.125
'[08:04:06.164]',-0.155
'[08:04:06.172]',-0.115
'[08:04:06.180]',-0.125
'[08:04:06.188]',-0.135
'[08:04:06.195]',-0.165
'[08:04:06.203]',-0.145
'[08:04:06.211]',-0.165
'[08:04:06.219]',-0.115
'[08:04:06.227]',-0.115
'[08:04:06.234]',-0.115
'[08:04:06.242]',-0.135
'[08:04:06.250]',-0.145
'[08:04:06.258]',-0.145
'[08:04:06.266]',-0.125
'[08:04:06.273]',-0.125
'[08:04:06.281]',-0.095
'[08:04:06.289]',-0.095
'[08:04:06.297]',-0.105
'[08:04:06.305]',-0.115
'[08:04:06.313]',-0.135
'[08:04:06.320]',-0.135
'[08:04:06.328]',-0.115
'[08:04:06.336]',-0.145
'[08:04:06.344]',-0.085
'[08:04:06.352]',-0.045
'[08:04:06.359]',-0.065
'[08:04:06.367]',-0.065
'[08:04:06.375]',0.065
'[08:04:06.383]',0.045
'[08:04:06.391]',0.005
'[08:04:06.398]',-0.055
'[08:04:06.406]',-0.095
'[08:04:06.414]',-0.105
'[08:04:06.422]',-0.135
'[08:04:06.430]',-0.155
'[08:04:06.438]',-0.205
'[08:04:06.445]',-0.195
'[08:04:06.453]',-0.195
'[08:04:06.461]',-0.195
'[08:04:06.469]',-0.175
'[08:04:06.477]',-0.195
'[08:04:06.484]',-0.305
'[08:04:06.492]',-0.815
'[08:04:06.500]',-0.615
'[08:04:06.508]',0.655
'[08:04:06.516]',2.305
'[08:04:06.523]',2.765
'[08:04:06.531]',2.475
'[08:04:06.539]',1.085
'[08:04:06.547]',-0.155
'[08:04:06.555]',-0.295
'[08:04:06.563]',-0.255
'[08:04:06.570]',-0.305
'[08:04:06.578]',-0.315
'[08:04:06.586]',-0.335
'[08:04:06.594]',-0.335
'[08:04:06.602]',-0.315
'[08:04:06.609]',-0.315
'[08:04:06.617]',-0.285
'[08:04:06.625]',-0.265
'[08:04:06.633]',-0.255
'[08:04:06.641]',-0.255
'[08:04:06.648]',-0.215
'[08:04:06.656]',-0.185
'[08:04:06.664]',-0.145
'[08:04:06.672]',-0.165
'[08:04:06.680]',-0.145
'[08:04:06.688]',-0.125
'[08:04:06.695]',-0.125
'[08:04:06.703]',-0.095
'[08:04:06.711]',-0.125
'[08:04:06.719]',-0.155
'[08:04:06.727]',-0.145
'[08:04:06.734]',-0.205
'[08:04:06.742]',-0.215
'[08:04:06.750]',-0.215
'[08:04:06.758]',-0.175
'[08:04:06.766]',-0.195
'[08:04:06.773]',-0.085
'[08:04:06.781]',-0.055
'[08:04:06.789]',-0.095
'[08:04:06.797]',-0.085
'[08:04:06.805]',-0.115
'[08:04:06.813]',-0.125
'[08:04:06.820]',-0.115
'[08:04:06.828]',-0.125
'[08:04:06.836]',-0.145
'[08:04:06.844]',-0.125
'[08:04:06.852]',-0.105
'[08:04:06.859]',-0.105
'[08:04:06.867]',-0.115
'[08:04:06.875]',-0.105
'[08:04:06.883]',-0.075
'[08:04:06.891]',-0.085
'[08:04:06.898]',-0.095
'[08:04:06.906]',-0.095
'[08:04:06.914]',-0.075
'[08:04:06.922]',-0.085
'[08:04:06.930]',-0.105
'[08:04:06.938]',-0.095
'[08:04:06.945]',-0.085
'[08:04:06.953]',-0.085
'[08:04:06.961]',-0.095
'[08:04:06.969]',-0.115
'[08:04:06.977]',-0.085
'[08:04:06.984]',-0.105
'[08:04:06.992]',-0.055
'[08:04:07.000]',-0.045
'[08:04:07.008]',-0.005
'[08:04:07.016]',0.015
'[08:04:07.023]',0.065
'[08:04:07.031]',0.035
'[08:04:07.039]',0.015
'[08:04:07.047]',-0.025
'[08:04:07.055]',-0.045
'[08:04:07.063]',-0.085
'[08:04:07.070]',-0.075
'[08:04:07.078]',-0.105
'[08:04:07.086]',-0.155
'[08:04:07.094]',-0.185
'[08:04:07.102]',-0.145
'[08:04:07.109]',-0.135
'[08:04:07.117]',-0.145
'[08:04:07.125]',-0.115
'[08:04:07.133]',-0.645
'[08:04:07.141]',-0.675
'[08:04:07.148]',0.275
'[08:04:07.156]',1.925
'[08:04:07.164]',2.745
'[08:04:07.172]',2.535
'[08:04:07.180]',1.725
'[08:04:07.188]',0.045
'[08:04:07.195]',-0.335
'[08:04:07.203]',-0.265
'[08:04:07.211]',-0.265
'[08:04:07.219]',-0.285
'[08:04:07.227]',-0.285
'[08:04:07.234]',-0.315
'[08:04:07.242]',-0.295
'[08:04:07.250]',-0.275
'[08:04:07.258]',-0.275
'[08:04:07.266]',-0.265
'[08:04:07.273]',-0.235
'[08:04:07.281]',-0.225
'[08:04:07.289]',-0.195
'[08:04:07.297]',-0.175
'[08:04:07.305]',-0.155
'[08:04:07.313]',-0.145
'[08:04:07.320]',-0.205
'[08:04:07.328]',-0.125
'[08:04:07.336]',-0.105
'[08:04:07.344]',-0.105
'[08:04:07.352]',-0.095
'[08:04:07.359]',-0.125
'[08:04:07.367]',-0.115
'[08:04:07.375]',-0.145
'[08:04:07.383]',-0.165
'[08:04:07.391]',-0.145
'[08:04:07.398]',-0.135
'[08:04:07.406]',-0.085
'[08:04:07.414]',-0.065
'[08:04:07.422]',-0.065
'[08:04:07.430]',-0.085
'[08:04:07.438]',-0.095
'[08:04:07.445]',-0.085
'[08:04:07.453]',-0.075
'[08:04:07.461]',-0.115
'[08:04:07.469]',-0.115
'[08:04:07.477]',-0.135
'[08:04:07.484]',-0.105
'[08:04:07.492]',-0.145
'[08:04:07.500]',-0.115
'[08:04:07.508]',-0.125
'[08:04:07.516]',-0.135
'[08:04:07.523]',-0.125
'[08:04:07.531]',-0.145
'[08:04:07.539]',-0.085
'[08:04:07.547]',-0.095
'[08:04:07.555]',-0.145
'[08:04:07.563]',-0.105
'[08:04:07.570]',-0.105
'[08:04:07.578]',-0.105
'[08:04:07.586]',-0.145
'[08:04:07.594]',-0.105
'[08:04:07.602]',-0.135
'[08:04:07.609]',-0.125
'[08:04:07.617]',-0.085
'[08:04:07.625]',-0.075
'[08:04:07.633]',-0.085
'[08:04:07.641]',-0.105
'[08:04:07.648]',0.005
'[08:04:07.656]',0.065
'[08:04:07.664]',-0.015
'[08:04:07.672]',-0.085
'[08:04:07.680]',-0.105
'[08:04:07.688]',-0.105
'[08:04:07.695]',-0.105
'[08:04:07.703]',-0.155
'[08:04:07.711]',-0.165
'[08:04:07.719]',-0.185
'[08:04:07.727]',-0.195
'[08:04:07.734]',-0.185
'[08:04:07.742]',-0.185
'[08:04:07.750]',-0.165
'[08:04:07.758]',-0.165
'[08:04:07.766]',-0.745
'[08:04:07.773]',-0.685
'[08:04:07.781]',0.545
'[08:04:07.789]',2.165
'[08:04:07.797]',2.835
'[08:04:07.805]',2.635
'[08:04:07.813]',1.655
'[08:04:07.820]',-0.015
'[08:04:07.828]',-0.415
'[08:04:07.836]',-0.245
'[08:04:07.844]',-0.295
'[08:04:07.852]',-0.335
'[08:04:07.859]',-0.325
'[08:04:07.867]',-0.325
'[08:04:07.875]',-0.335
'[08:04:07.883]',-0.315
'[08:04:07.891]',-0.285
'[08:04:07.898]',-0.255
'[08:04:07.906]',-0.265
'[08:04:07.914]',-0.265
'[08:04:07.922]',-0.215
'[08:04:07.930]',-0.205
'[08:04:07.938]',-0.195
'[08:04:07.945]',-0.165
'[08:04:07.953]',-0.125
'[08:04:07.961]',-0.145
'[08:04:07.969]',-0.155
'[08:04:07.977]',-0.145
'[08:04:07.984]',-0.125
'[08:04:07.992]',-0.215
'[08:04:08.000]',-0.165
'[08:04:08.008]',-0.175
'[08:04:08.016]',-0.195
'[08:04:08.023]',-0.165
'[08:04:08.031]',-0.155
'[08:04:08.039]',-0.125
'[08:04:08.047]',-0.095
'[08:04:08.055]',-0.105
'[08:04:08.063]',-0.095
'[08:04:08.070]',-0.135
'[08:04:08.078]',-0.135
'[08:04:08.086]',-0.135
'[08:04:08.094]',-0.165
'[08:04:08.102]',-0.135
'[08:04:08.109]',-0.135
'[08:04:08.117]',-0.135
'[08:04:08.125]',-0.145
'[08:04:08.133]',-0.145
'[08:04:08.141]',-0.135
'[08:04:08.148]',-0.145
'[08:04:08.156]',-0.125
'[08:04:08.164]',-0.115
'[08:04:08.172]',-0.105
'[08:04:08.180]',-0.135
'[08:04:08.188]',-0.115
'[08:04:08.195]',-0.105
'[08:04:08.203]',-0.145
'[08:04:08.211]',-0.135
'[08:04:08.219]',-0.135
'[08:04:08.227]',-0.125
'[08:04:08.234]',-0.125
'[08:04:08.242]',-0.085
'[08:04:08.250]',-0.075
'[08:04:08.258]',-0.065
'[08:04:08.266]',0.015
'[08:04:08.273]',0.045
'[08:04:08.281]',0.005
'[08:04:08.289]',-0.035
'[08:04:08.297]',-0.085
'[08:04:08.305]',-0.115
'[08:04:08.313]',-0.115
'[08:04:08.320]',-0.125
'[08:04:08.328]',-0.145
'[08:04:08.336]',-0.195
'[08:04:08.344]',-0.205
'[08:04:08.352]',-0.175
'[08:04:08.359]',-0.145
'[08:04:08.367]',-0.155
'[08:04:08.375]',-0.265
'[08:04:08.383]',-0.755
'[08:04:08.391]',-0.545
'[08:04:08.398]',0.695
'[08:04:08.406]',2.195
'[08:04:08.414]',2.715
'[08:04:08.422]',2.535
'[08:04:08.430]',1.145
'[08:04:08.438]',-0.135
'[08:04:08.445]',-0.245
'[08:04:08.453]',-0.215
'[08:04:08.461]',-0.265
'[08:04:08.469]',-0.355
'[08:04:08.477]',-0.335
'[08:04:08.484]',-0.305
'[08:04:08.492]',-0.315
'[08:04:08.500]',-0.295
'[08:04:08.508]',-0.295
'[08:04:08.516]',-0.275
'[08:04:08.523]',-0.255
'[08:04:08.531]',-0.255
'[08:04:08.539]',-0.205
'[08:04:08.547]',-0.165
'[08:04:08.555]',-0.145
'[08:04:08.563]',-0.145
'[08:04:08.570]',-0.125
'[08:04:08.578]',-0.105
'[08:04:08.586]',-0.115
'[08:04:08.594]',-0.135
'[08:04:08.602]',-0.135
'[08:04:08.609]',-0.125
'[08:04:08.617]',-0.185
'[08:04:08.625]',-0.215
'[08:04:08.633]',-0.235
'[08:04:08.641]',-0.205
'[08:04:08.648]',-0.195
'[08:04:08.656]',-0.165
'[08:04:08.664]',-0.135
'[08:04:08.672]',-0.135
'[08:04:08.680]',-0.125
'[08:04:08.688]',-0.135
'[08:04:08.695]',-0.135
'[08:04:08.703]',-0.135
'[08:04:08.711]',-0.145
'[08:04:08.719]',-0.135
'[08:04:08.727]',-0.135
'[08:04:08.734]',-0.135
'[08:04:08.742]',-0.125
'[08:04:08.750]',-0.115
'[08:04:08.758]',-0.145
'[08:04:08.766]',-0.105
'[08:04:08.773]',-0.115
'[08:04:08.781]',-0.135
'[08:04:08.789]',-0.135
'[08:04:08.797]',-0.095
'[08:04:08.805]',-0.125
'[08:04:08.813]',-0.155
'[08:04:08.820]',-0.135
'[08:04:08.828]',-0.135
'[08:04:08.836]',-0.115
'[08:04:08.844]',-0.135
'[08:04:08.852]',-0.105
'[08:04:08.859]',-0.085
'[08:04:08.867]',-0.025
'[08:04:08.875]',-0.045
'[08:04:08.883]',-0.105
'[08:04:08.891]',-0.005
'[08:04:08.898]',0.075
'[08:04:08.906]',-0.005
'[08:04:08.914]',-0.045
'[08:04:08.922]',-0.105
'[08:04:08.930]',-0.095
'[08:04:08.938]',-0.125
'[08:04:08.945]',-0.095
'[08:04:08.953]',-0.135
'[08:04:08.961]',-0.205
'[08:04:08.969]',-0.195
'[08:04:08.977]',-0.185
'[08:04:08.984]',-0.175
'[08:04:08.992]',-0.185
'[08:04:09.000]',-0.145
'[08:04:09.008]',-0.675
'[08:04:09.016]',-0.765
'[08:04:09.023]',0.335
'[08:04:09.031]',2.115
'[08:04:09.039]',2.855
'[08:04:09.047]',2.615
'[08:04:09.055]',1.305
'[08:04:09.063]',-0.095
'[08:04:09.070]',-0.265
'[08:04:09.078]',-0.265
'[08:04:09.086]',-0.285
'[08:04:09.094]',-0.325
'[08:04:09.102]',-0.355
'[08:04:09.109]',-0.305
'[08:04:09.117]',-0.325
'[08:04:09.125]',-0.305
'[08:04:09.133]',-0.305
'[08:04:09.141]',-0.285
'[08:04:09.148]',-0.245
'[08:04:09.156]',-0.235
'[08:04:09.164]',-0.205
'[08:04:09.172]',-0.225
'[08:04:09.180]',-0.135
'[08:04:09.188]',-0.175
'[08:04:09.195]',-0.125
'[08:04:09.203]',-0.075
'[08:04:09.211]',-0.085
'[08:04:09.219]',-0.095
'[08:04:09.227]',-0.105
'[08:04:09.234]',-0.145
'[08:04:09.242]',-0.115
'[08:04:09.250]',-0.185
'[08:04:09.258]',-0.195
'[08:04:09.266]',-0.195
'[08:04:09.273]',-0.205
'[08:04:09.281]',-0.135
'[08:04:09.289]',-0.105
'[08:04:09.297]',-0.135
'[08:04:09.305]',-0.105
'[08:04:09.313]',-0.135
'[08:04:09.320]',-0.135
'[08:04:09.328]',-0.155
'[08:04:09.336]',-0.135
'[08:04:09.344]',-0.125
'[08:04:09.352]',-0.135
'[08:04:09.359]',-0.185
'[08:04:09.367]',-0.165
'[08:04:09.375]',-0.125
'[08:04:09.383]',-0.145
'[08:04:09.391]',-0.115
'[08:04:09.398]',-0.125
'[08:04:09.406]',-0.165
'[08:04:09.414]',-0.125
'[08:04:09.422]',-0.155
'[08:04:09.430]',-0.145
'[08:04:09.438]',-0.165
'[08:04:09.445]',-0.145
'[08:04:09.453]',-0.135
'[08:04:09.461]',-0.155
'[08:04:09.469]',-0.155
'[08:04:09.477]',-0.175
'[08:04:09.484]',-0.145
'[08:04:09.492]',-0.175
'[08:04:09.500]',-0.145
'[08:04:09.508]',-0.095
'[08:04:09.516]',-0.055
'[08:04:09.523]',-0.085
'[08:04:09.531]',-0.055
'[08:04:09.539]',0.055
'[08:04:09.547]',-0.045
'[08:04:09.555]',-0.075
'[08:04:09.563]',-0.105
'[08:04:09.570]',-0.105
'[08:04:09.578]',-0.135
'[08:04:09.586]',-0.195
'[08:04:09.594]',-0.195
'[08:04:09.602]',-0.205
'[08:04:09.609]',-0.185
'[08:04:09.617]',-0.195
'[08:04:09.625]',-0.205
'[08:04:09.633]',-0.195
'[08:04:09.641]',-0.175
'[08:04:09.648]',-0.565
'[08:04:09.656]',-0.735
'[08:04:09.664]',0.045
'[08:04:09.672]',1.855
'[08:04:09.680]',2.745
'[08:04:09.688]',2.595
'[08:04:09.695]',1.645
'[08:04:09.703]',0.085
'[08:04:09.711]',-0.305
'[08:04:09.719]',-0.275
'[08:04:09.727]',-0.285
'[08:04:09.734]',-0.335
'[08:04:09.742]',-0.355
'[08:04:09.750]',-0.355
'[08:04:09.758]',-0.335
'[08:04:09.766]',-0.355
'[08:04:09.773]',-0.315
'[08:04:09.781]',-0.295
'[08:04:09.789]',-0.275
'[08:04:09.797]',-0.235
'[08:04:09.805]',-0.235
'[08:04:09.813]',-0.225
'[08:04:09.820]',-0.205
'[08:04:09.828]',-0.185
'[08:04:09.836]',-0.185
'[08:04:09.844]',-0.165
'[08:04:09.852]',-0.125
'[08:04:09.859]',-0.135
'[08:04:09.867]',-0.135
'[08:04:09.875]',-0.145
'[08:04:09.883]',-0.145
'[08:04:09.891]',-0.175
'[08:04:09.898]',-0.205
'[08:04:09.906]',-0.185
'[08:04:09.914]',-0.205
'[08:04:09.922]',-0.125
'[08:04:09.930]',-0.105
'[08:04:09.938]',-0.115
'[08:04:09.945]',-0.095
'[08:04:09.953]',-0.125
'[08:04:09.961]',-0.115
'[08:04:09.969]',-0.135
'[08:04:09.977]',-0.155
'[08:04:09.984]',-0.155
'[08:04:09.992]',-0.165
