'[11:06:00.000]',-0.035
'[11:06:00.008]',-0.015
'[11:06:00.016]',-0.045
'[11:06:00.023]',-0.025
'[11:06:00.031]',-0.035
'[11:06:00.039]',-0.035
'[11:06:00.047]',-0.015
'[11:06:00.055]',-0.015
'[11:06:00.063]',-0.045
'[11:06:00.070]',-0.015
'[11:06:00.078]',-0.015
'[11:06:00.086]',-0.015
'[11:06:00.094]',-0.005
'[11:06:00.102]',0.025
'[11:06:00.109]',0.025
'[11:06:00.117]',0.055
'[11:06:00.125]',0.045
'[11:06:00.133]',0.045
'[11:06:00.141]',0.035
'[11:06:00.148]',0.015
'[11:06:00.156]',0.015
'[11:06:00.164]',-0.035
'[11:06:00.172]',-0.045
'[11:06:00.180]',-0.035
'[11:06:00.188]',-0.065
'[11:06:00.195]',-0.055
'[11:06:00.203]',-0.065
'[11:06:00.211]',-0.075
'[11:06:00.219]',-0.055
'[11:06:00.227]',-0.045
'[11:06:00.234]',-0.075
'[11:06:00.242]',-0.035
'[11:06:00.250]',-0.035
'[11:06:00.258]',-0.025
'[11:06:00.266]',0.005
'[11:06:00.273]',0.025
'[11:06:00.281]',0.235
'[11:06:00.289]',0.875
'[11:06:00.297]',1.415
'[11:06:00.305]',0.855
'[11:06:00.313]',-0.215
'[11:06:00.320]',-0.465
'[11:06:00.328]',-0.165
'[11:06:00.336]',-0.095
'[11:06:00.344]',-0.095
'[11:06:00.352]',-0.115
'[11:06:00.359]',-0.115
'[11:06:00.367]',-0.105
'[11:06:00.375]',-0.095
'[11:06:00.383]',-0.105
'[11:06:00.391]',-0.105
'[11:06:00.398]',-0.095
'[11:06:00.406]',-0.095
'[11:06:00.414]',-0.105
'[11:06:00.422]',-0.105
'[11:06:00.430]',-0.115
'[11:06:00.438]',-0.105
'[11:06:00.445]',-0.125
'[11:06:00.453]',-0.115
'[11:06:00.461]',-0.105
'[11:06:00.469]',-0.075
'[11:06:00.477]',-0.105
'[11:06:00.484]',-0.105
'[11:06:00.492]',-0.115
'[11:06:00.500]',-0.135
'[11:06:00.508]',-0.135
'[11:06:00.516]',-0.155
'[11:06:00.523]',-0.135
'[11:06:00.531]',-0.155
'[11:06:00.539]',-0.105
'[11:06:00.547]',-0.155
'[11:06:00.555]',-0.115
'[11:06:00.563]',-0.105
'[11:06:00.570]',-0.095
'[11:06:00.578]',-0.065
'[11:06:00.586]',-0.045
'[11:06:00.594]',-0.025
'[11:06:00.602]',-0.055
'[11:06:00.609]',-0.025
'[11:06:00.617]',-0.045
'[11:06:00.625]',-0.075
'[11:06:00.633]',-0.065
'[11:06:00.641]',-0.065
'[11:06:00.648]',-0.055
'[11:06:00.656]',-0.065
'[11:06:00.664]',-0.075
'[11:06:00.672]',-0.065
'[11:06:00.680]',-0.075
'[11:06:00.688]',-0.055
'[11:06:00.695]',-0.045
'[11:06:00.703]',-0.055
'[11:06:00.711]',-0.055
'[11:06:00.719]',-0.055
'[11:06:00.727]',-0.055
'[11:06:00.734]',-0.025
'[11:06:00.742]',-0.035
'[11:06:00.750]',-0.045
'[11:06:00.758]',-0.035
'[11:06:00.766]',-0.035
'[11:06:00.773]',-0.025
'[11:06:00.781]',0.005
'[11:06:00.789]',-0.055
'[11:06:00.797]',-0.055
'[11:06:00.805]',-0.015
'[11:06:00.813]',-0.005
'[11:06:00.820]',-0.055
'[11:06:00.828]',-0.045
'[11:06:00.836]',-0.055
'[11:06:00.844]',-0.025
'[11:06:00.852]',-0.035
'[11:06:00.859]',-0.045
'[11:06:00.867]',-0.045
'[11:06:00.875]',-0.015
'[11:06:00.883]',-0.045
'[11:06:00.891]',-0.035
'[11:06:00.898]',-0.015
'[11:06:00.906]',-0.005
'[11:06:00.914]',-0.045
'[11:06:00.922]',-0.035
'[11:06:00.930]',-0.015
'[11:06:00.938]',-0.015
'[11:06:00.945]',-0.015
'[11:06:00.953]',-0.025
'[11:06:00.961]',-0.025
'[11:06:00.969]',0.005
'[11:06:00.977]',0.025
'[11:06:00.984]',0.005
'[11:06:00.992]',0.045
'[11:06:01.000]',0.065
'[11:06:01.008]',0.055
'[11:06:01.016]',0.075
'[11:06:01.023]',0.065
'[11:06:01.031]',0.055
'[11:06:01.039]',0.015
'[11:06:01.047]',0.035
'[11:06:01.055]',0.015
'[11:06:01.063]',-0.045
'[11:06:01.070]',-0.045
'[11:06:01.078]',-0.065
'[11:06:01.086]',-0.065
'[11:06:01.094]',-0.045
'[11:06:01.102]',-0.065
'[11:06:01.109]',-0.035
'[11:06:01.117]',-0.015
'[11:06:01.125]',-0.045
'[11:06:01.133]',-0.045
'[11:06:01.141]',-0.005
'[11:06:01.148]',-0.015
'[11:06:01.156]',0.015
'[11:06:01.164]',0.035
'[11:06:01.172]',0.215
'[11:06:01.180]',0.845
'[11:06:01.188]',1.395
'[11:06:01.195]',1.155
'[11:06:01.203]',0.205
'[11:06:01.211]',-0.525
'[11:06:01.219]',-0.265
'[11:06:01.227]',-0.065
'[11:06:01.234]',-0.055
'[11:06:01.242]',-0.065
'[11:06:01.250]',-0.095
'[11:06:01.258]',-0.115
'[11:06:01.266]',-0.075
'[11:06:01.273]',-0.115
'[11:06:01.281]',-0.095
'[11:06:01.289]',-0.105
'[11:06:01.297]',-0.095
'[11:06:01.305]',-0.095
'[11:06:01.313]',-0.105
'[11:06:01.320]',-0.105
'[11:06:01.328]',-0.095
'[11:06:01.336]',-0.125
'[11:06:01.344]',-0.105
'[11:06:01.352]',-0.105
'[11:06:01.359]',-0.125
'[11:06:01.367]',-0.085
'[11:06:01.375]',-0.105
'[11:06:01.383]',-0.105
'[11:06:01.391]',-0.105
'[11:06:01.398]',-0.125
'[11:06:01.406]',-0.115
'[11:06:01.414]',-0.155
'[11:06:01.422]',-0.135
'[11:06:01.430]',-0.115
'[11:06:01.438]',-0.135
'[11:06:01.445]',-0.105
'[11:06:01.453]',-0.125
'[11:06:01.461]',-0.085
'[11:06:01.469]',-0.075
'[11:06:01.477]',-0.025
'[11:06:01.484]',-0.045
'[11:06:01.492]',-0.025
'[11:06:01.500]',-0.025
'[11:06:01.508]',-0.045
'[11:06:01.516]',-0.055
'[11:06:01.523]',-0.045
'[11:06:01.531]',-0.065
'[11:06:01.539]',-0.085
'[11:06:01.547]',-0.065
'[11:06:01.555]',-0.065
'[11:06:01.563]',-0.055
'[11:06:01.570]',-0.085
'[11:06:01.578]',-0.065
'[11:06:01.586]',-0.075
'[11:06:01.594]',-0.065
'[11:06:01.602]',-0.055
'[11:06:01.609]',-0.055
'[11:06:01.617]',-0.045
'[11:06:01.625]',-0.065
'[11:06:01.633]',-0.085
'[11:06:01.641]',-0.055
'[11:06:01.648]',-0.055
'[11:06:01.656]',-0.045
'[11:06:01.664]',-0.065
'[11:06:01.672]',-0.045
'[11:06:01.680]',-0.045
'[11:06:01.688]',-0.035
'[11:06:01.695]',-0.035
'[11:06:01.703]',-0.045
'[11:06:01.711]',-0.035
'[11:06:01.719]',-0.045
'[11:06:01.727]',-0.055
'[11:06:01.734]',-0.065
'[11:06:01.742]',-0.065
'[11:06:01.750]',-0.055
'[11:06:01.758]',-0.055
'[11:06:01.766]',-0.075
'[11:06:01.773]',-0.045
'[11:06:01.781]',-0.055
'[11:06:01.789]',-0.045
'[11:06:01.797]',-0.055
'[11:06:01.805]',-0.065
'[11:06:01.813]',-0.055
'[11:06:01.820]',-0.065
'[11:06:01.828]',-0.015
'[11:06:01.836]',-0.075
'[11:06:01.844]',-0.075
'[11:06:01.852]',-0.055
'[11:06:01.859]',-0.035
'[11:06:01.867]',-0.045
'[11:06:01.875]',0.005
'[11:06:01.883]',-0.005
'[11:06:01.891]',0.005
'[11:06:01.898]',-0.005
'[11:06:01.906]',0.035
'[11:06:01.914]',0.025
'[11:06:01.922]',0.025
'[11:06:01.930]',0.015
'[11:06:01.938]',-0.005
'[11:06:01.945]',-0.025
'[11:06:01.953]',-0.035
'[11:06:01.961]',-0.075
'[11:06:01.969]',-0.075
'[11:06:01.977]',-0.095
'[11:06:01.984]',-0.075
'[11:06:01.992]',-0.085
'[11:06:02.000]',-0.085
'[11:06:02.008]',-0.085
'[11:06:02.016]',-0.075
'[11:06:02.023]',-0.075
'[11:06:02.031]',-0.065
'[11:06:02.039]',-0.035
'[11:06:02.047]',-0.055
'[11:06:02.055]',-0.005
'[11:06:02.063]',0.045
'[11:06:02.070]',0.325
'[11:06:02.078]',0.985
'[11:06:02.086]',1.295
'[11:06:02.094]',0.515
'[11:06:02.102]',-0.325
'[11:06:02.109]',-0.455
'[11:06:02.117]',-0.175
'[11:06:02.125]',-0.085
'[11:06:02.133]',-0.115
'[11:06:02.141]',-0.105
'[11:06:02.148]',-0.115
'[11:06:02.156]',-0.135
'[11:06:02.164]',-0.135
'[11:06:02.172]',-0.135
'[11:06:02.180]',-0.125
'[11:06:02.188]',-0.115
'[11:06:02.195]',-0.125
'[11:06:02.203]',-0.115
'[11:06:02.211]',-0.135
'[11:06:02.219]',-0.145
'[11:06:02.227]',-0.135
'[11:06:02.234]',-0.135
'[11:06:02.242]',-0.125
'[11:06:02.250]',-0.145
'[11:06:02.258]',-0.125
'[11:06:02.266]',-0.115
'[11:06:02.273]',-0.135
'[11:06:02.281]',-0.145
'[11:06:02.289]',-0.155
'[11:06:02.297]',-0.165
'[11:06:02.305]',-0.135
'[11:06:02.313]',-0.155
'[11:06:02.320]',-0.185
'[11:06:02.328]',-0.175
'[11:06:02.336]',-0.175
'[11:06:02.344]',-0.155
'[11:06:02.352]',-0.165
'[11:06:02.359]',-0.125
'[11:06:02.367]',-0.115
'[11:06:02.375]',-0.065
'[11:06:02.383]',-0.085
'[11:06:02.391]',-0.085
'[11:06:02.398]',-0.065
'[11:06:02.406]',-0.075
'[11:06:02.414]',-0.095
'[11:06:02.422]',-0.105
'[11:06:02.430]',-0.075
'[11:06:02.438]',-0.115
'[11:06:02.445]',-0.105
'[11:06:02.453]',-0.095
'[11:06:02.461]',-0.105
'[11:06:02.469]',-0.115
'[11:06:02.477]',-0.095
'[11:06:02.484]',-0.095
'[11:06:02.492]',-0.075
'[11:06:02.500]',-0.095
'[11:06:02.508]',-0.095
'[11:06:02.516]',-0.055
'[11:06:02.523]',-0.085
'[11:06:02.531]',-0.085
'[11:06:02.539]',-0.065
'[11:06:02.547]',-0.055
'[11:06:02.555]',-0.075
'[11:06:02.563]',-0.075
'[11:06:02.570]',-0.065
'[11:06:02.578]',-0.065
'[11:06:02.586]',-0.095
'[11:06:02.594]',-0.075
'[11:06:02.602]',-0.085
'[11:06:02.609]',-0.045
'[11:06:02.617]',-0.055
'[11:06:02.625]',-0.065
'[11:06:02.633]',-0.105
'[11:06:02.641]',-0.075
'[11:06:02.648]',-0.065
'[11:06:02.656]',-0.075
'[11:06:02.664]',-0.075
'[11:06:02.672]',-0.065
'[11:06:02.680]',-0.065
'[11:06:02.688]',-0.065
'[11:06:02.695]',-0.065
'[11:06:02.703]',-0.085
'[11:06:02.711]',-0.055
'[11:06:02.719]',-0.045
'[11:06:02.727]',-0.055
'[11:06:02.734]',-0.035
'[11:06:02.742]',-0.005
'[11:06:02.750]',-0.015
'[11:06:02.758]',-0.005
'[11:06:02.766]',0.015
'[11:06:02.773]',0.005
'[11:06:02.781]',0.005
'[11:06:02.789]',0.005
'[11:06:02.797]',-0.025
'[11:06:02.805]',-0.025
'[11:06:02.813]',-0.045
'[11:06:02.820]',-0.075
'[11:06:02.828]',-0.095
'[11:06:02.836]',-0.105
'[11:06:02.844]',-0.105
'[11:06:02.852]',-0.075
'[11:06:02.859]',-0.095
'[11:06:02.867]',-0.075
'[11:06:02.875]',-0.105
'[11:06:02.883]',-0.075
'[11:06:02.891]',-0.055
'[11:06:02.898]',-0.055
'[11:06:02.906]',-0.065
'[11:06:02.914]',-0.025
'[11:06:02.922]',0.045
'[11:06:02.930]',0.305
'[11:06:02.938]',1.075
'[11:06:02.945]',1.415
'[11:06:02.953]',0.695
'[11:06:02.961]',-0.305
'[11:06:02.969]',-0.515
'[11:06:02.977]',-0.225
'[11:06:02.984]',-0.095
'[11:06:02.992]',-0.075
'[11:06:03.000]',-0.105
'[11:06:03.008]',-0.135
'[11:06:03.016]',-0.115
'[11:06:03.023]',-0.125
'[11:06:03.031]',-0.125
'[11:06:03.039]',-0.135
'[11:06:03.047]',-0.115
'[11:06:03.055]',-0.115
'[11:06:03.063]',-0.105
'[11:06:03.070]',-0.125
'[11:06:03.078]',-0.105
'[11:06:03.086]',-0.135
'[11:06:03.094]',-0.095
'[11:06:03.102]',-0.115
'[11:06:03.109]',-0.145
'[11:06:03.117]',-0.125
'[11:06:03.125]',-0.135
'[11:06:03.133]',-0.105
'[11:06:03.141]',-0.145
'[11:06:03.148]',-0.135
'[11:06:03.156]',-0.135
'[11:06:03.164]',-0.145
'[11:06:03.172]',-0.155
'[11:06:03.180]',-0.145
'[11:06:03.188]',-0.165
'[11:06:03.195]',-0.165
'[11:06:03.203]',-0.145
'[11:06:03.211]',-0.145
'[11:06:03.219]',-0.105
'[11:06:03.227]',-0.075
'[11:06:03.234]',-0.055
'[11:06:03.242]',-0.035
'[11:06:03.250]',-0.055
'[11:06:03.258]',-0.055
'[11:06:03.266]',-0.065
'[11:06:03.273]',-0.065
'[11:06:03.281]',-0.075
'[11:06:03.289]',-0.065
'[11:06:03.297]',-0.055
'[11:06:03.305]',-0.085
'[11:06:03.313]',-0.105
'[11:06:03.320]',-0.095
'[11:06:03.328]',-0.065
'[11:06:03.336]',-0.085
'[11:06:03.344]',-0.085
'[11:06:03.352]',-0.075
'[11:06:03.359]',-0.045
'[11:06:03.367]',-0.075
'[11:06:03.375]',-0.075
'[11:06:03.383]',-0.015
'[11:06:03.391]',-0.065
'[11:06:03.398]',-0.085
'[11:06:03.406]',-0.045
'[11:06:03.414]',-0.035
'[11:06:03.422]',-0.065
'[11:06:03.430]',-0.045
'[11:06:03.438]',-0.045
'[11:06:03.445]',-0.035
'[11:06:03.453]',-0.035
'[11:06:03.461]',-0.055
'[11:06:03.469]',-0.055
'[11:06:03.477]',-0.045
'[11:06:03.484]',-0.045
'[11:06:03.492]',-0.035
'[11:06:03.500]',-0.075
'[11:06:03.508]',-0.055
'[11:06:03.516]',-0.035
'[11:06:03.523]',-0.065
'[11:06:03.531]',-0.055
'[11:06:03.539]',-0.065
'[11:06:03.547]',-0.055
'[11:06:03.555]',-0.045
'[11:06:03.563]',-0.085
'[11:06:03.570]',-0.045
'[11:06:03.578]',-0.055
'[11:06:03.586]',-0.055
'[11:06:03.594]',-0.035
'[11:06:03.602]',-0.015
'[11:06:03.609]',0.015
'[11:06:03.617]',0.005
'[11:06:03.625]',0.035
'[11:06:03.633]',0.025
'[11:06:03.641]',0.025
'[11:06:03.648]',0.005
'[11:06:03.656]',-0.025
'[11:06:03.664]',0.005
'[11:06:03.672]',-0.005
'[11:06:03.680]',-0.055
'[11:06:03.688]',-0.105
'[11:06:03.695]',-0.085
'[11:06:03.703]',-0.075
'[11:06:03.711]',-0.095
'[11:06:03.719]',-0.085
'[11:06:03.727]',-0.095
'[11:06:03.734]',-0.085
'[11:06:03.742]',-0.055
'[11:06:03.750]',-0.045
'[11:06:03.758]',-0.055
'[11:06:03.766]',-0.045
'[11:06:03.773]',-0.025
'[11:06:03.781]',0.025
'[11:06:03.789]',0.155
'[11:06:03.797]',0.685
'[11:06:03.805]',1.345
'[11:06:03.813]',1.075
'[11:06:03.820]',0.055
'[11:06:03.828]',-0.515
'[11:06:03.836]',-0.245
'[11:06:03.844]',-0.075
'[11:06:03.852]',-0.085
'[11:06:03.859]',-0.105
'[11:06:03.867]',-0.105
'[11:06:03.875]',-0.115
'[11:06:03.883]',-0.115
'[11:06:03.891]',-0.125
'[11:06:03.898]',-0.125
'[11:06:03.906]',-0.095
'[11:06:03.914]',-0.115
'[11:06:03.922]',-0.105
'[11:06:03.930]',-0.085
'[11:06:03.938]',-0.105
'[11:06:03.945]',-0.125
'[11:06:03.953]',-0.105
'[11:06:03.961]',-0.115
'[11:06:03.969]',-0.105
'[11:06:03.977]',-0.115
'[11:06:03.984]',-0.125
'[11:06:03.992]',-0.085
'[11:06:04.000]',-0.125
'[11:06:04.008]',-0.155
'[11:06:04.016]',-0.105
'[11:06:04.023]',-0.135
'[11:06:04.031]',-0.165
'[11:06:04.039]',-0.145
'[11:06:04.047]',-0.125
'[11:06:04.055]',-0.135
'[11:06:04.063]',-0.135
'[11:06:04.070]',-0.125
'[11:06:04.078]',-0.085
'[11:06:04.086]',-0.075
'[11:06:04.094]',-0.035
'[11:06:04.102]',-0.035
'[11:06:04.109]',-0.055
'[11:06:04.117]',-0.055
'[11:06:04.125]',-0.035
'[11:06:04.133]',-0.065
'[11:06:04.141]',-0.065
'[11:06:04.148]',-0.065
'[11:06:04.156]',-0.075
'[11:06:04.164]',-0.065
'[11:06:04.172]',-0.085
'[11:06:04.180]',-0.065
'[11:06:04.188]',-0.075
'[11:06:04.195]',-0.075
'[11:06:04.203]',-0.075
'[11:06:04.211]',-0.065
'[11:06:04.219]',-0.045
'[11:06:04.227]',-0.055
'[11:06:04.234]',-0.055
'[11:06:04.242]',-0.045
'[11:06:04.250]',-0.065
'[11:06:04.258]',-0.035
'[11:06:04.266]',-0.025
'[11:06:04.273]',-0.045
'[11:06:04.281]',-0.045
'[11:06:04.289]',-0.025
'[11:06:04.297]',-0.045
'[11:06:04.305]',-0.025
'[11:06:04.313]',-0.025
'[11:06:04.320]',-0.025
'[11:06:04.328]',-0.025
'[11:06:04.336]',-0.035
'[11:06:04.344]',-0.035
'[11:06:04.352]',-0.035
'[11:06:04.359]',-0.025
'[11:06:04.367]',-0.035
'[11:06:04.375]',-0.055
'[11:06:04.383]',-0.025
'[11:06:04.391]',-0.045
'[11:06:04.398]',-0.035
'[11:06:04.406]',-0.025
'[11:06:04.414]',-0.045
'[11:06:04.422]',-0.055
'[11:06:04.430]',-0.025
'[11:06:04.438]',-0.005
'[11:06:04.445]',-0.025
'[11:06:04.453]',-0.035
'[11:06:04.461]',-0.045
'[11:06:04.469]',-0.035
'[11:06:04.477]',-0.035
'[11:06:04.484]',-0.025
'[11:06:04.492]',-0.025
'[11:06:04.500]',0.005
'[11:06:04.508]',0.015
'[11:06:04.516]',0.025
'[11:06:04.523]',0.015
'[11:06:04.531]',0.025
'[11:06:04.539]',0.055
'[11:06:04.547]',0.035
'[11:06:04.555]',0.025
'[11:06:04.563]',0.005
'[11:06:04.570]',0.015
'[11:06:04.578]',-0.025
'[11:06:04.586]',-0.055
'[11:06:04.594]',-0.065
'[11:06:04.602]',-0.075
'[11:06:04.609]',-0.045
'[11:06:04.617]',-0.065
'[11:06:04.625]',-0.055
'[11:06:04.633]',-0.045
'[11:06:04.641]',-0.045
'[11:06:04.648]',-0.045
'[11:06:04.656]',-0.035
'[11:06:04.664]',-0.025
'[11:06:04.672]',-0.025
'[11:06:04.680]',0.005
'[11:06:04.688]',0.015
'[11:06:04.695]',0.135
'[11:06:04.703]',0.595
'[11:06:04.711]',1.165
'[11:06:04.719]',1.005
'[11:06:04.727]',0.215
'[11:06:04.734]',-0.415
'[11:06:04.742]',-0.215
'[11:06:04.750]',-0.075
'[11:06:04.758]',-0.085
'[11:06:04.766]',-0.085
'[11:06:04.773]',-0.095
'[11:06:04.781]',-0.095
'[11:06:04.789]',-0.115
'[11:06:04.797]',-0.115
'[11:06:04.805]',-0.085
'[11:06:04.813]',-0.115
'[11:06:04.820]',-0.135
'[11:06:04.828]',-0.115
'[11:06:04.836]',-0.115
'[11:06:04.844]',-0.105
'[11:06:04.852]',-0.125
'[11:06:04.859]',-0.105
'[11:06:04.867]',-0.105
'[11:06:04.875]',-0.115
'[11:06:04.883]',-0.115
'[11:06:04.891]',-0.125
'[11:06:04.898]',-0.095
'[11:06:04.906]',-0.145
'[11:06:04.914]',-0.145
'[11:06:04.922]',-0.125
'[11:06:04.930]',-0.125
'[11:06:04.938]',-0.135
'[11:06:04.945]',-0.145
'[11:06:04.953]',-0.135
'[11:06:04.961]',-0.145
'[11:06:04.969]',-0.145
'[11:06:04.977]',-0.135
'[11:06:04.984]',-0.105
'[11:06:04.992]',-0.055
'[11:06:05.000]',-0.065
'[11:06:05.008]',-0.045
'[11:06:05.016]',-0.045
'[11:06:05.023]',-0.065
'[11:06:05.031]',-0.055
'[11:06:05.039]',-0.085
'[11:06:05.047]',-0.075
'[11:06:05.055]',-0.065
'[11:06:05.063]',-0.085
'[11:06:05.070]',-0.095
'[11:06:05.078]',-0.075
'[11:06:05.086]',-0.075
'[11:06:05.094]',-0.095
'[11:06:05.102]',-0.105
'[11:06:05.109]',-0.085
'[11:06:05.117]',-0.085
'[11:06:05.125]',-0.065
'[11:06:05.133]',-0.075
'[11:06:05.141]',-0.075
'[11:06:05.148]',-0.075
'[11:06:05.156]',-0.045
'[11:06:05.164]',-0.035
'[11:06:05.172]',-0.065
'[11:06:05.180]',-0.035
'[11:06:05.188]',-0.055
'[11:06:05.195]',-0.045
'[11:06:05.203]',-0.045
'[11:06:05.211]',-0.055
'[11:06:05.219]',-0.055
'[11:06:05.227]',-0.045
'[11:06:05.234]',-0.035
'[11:06:05.242]',-0.035
'[11:06:05.250]',-0.055
'[11:06:05.258]',-0.045
'[11:06:05.266]',-0.045
'[11:06:05.273]',-0.045
'[11:06:05.281]',-0.055
'[11:06:05.289]',-0.045
'[11:06:05.297]',-0.065
'[11:06:05.305]',-0.055
'[11:06:05.313]',-0.055
'[11:06:05.320]',-0.045
'[11:06:05.328]',-0.045
'[11:06:05.336]',-0.045
'[11:06:05.344]',-0.055
'[11:06:05.352]',-0.055
'[11:06:05.359]',-0.035
'[11:06:05.367]',-0.025
'[11:06:05.375]',-0.035
'[11:06:05.383]',-0.005
'[11:06:05.391]',-0.005
'[11:06:05.398]',-0.005
'[11:06:05.406]',0.035
'[11:06:05.414]',0.025
'[11:06:05.422]',0.035
'[11:06:05.430]',0.045
'[11:06:05.438]',0.015
'[11:06:05.445]',-0.015
'[11:06:05.453]',-0.015
'[11:06:05.461]',-0.055
'[11:06:05.469]',-0.065
'[11:06:05.477]',-0.075
'[11:06:05.484]',-0.075
'[11:06:05.492]',-0.085
'[11:06:05.500]',-0.085
'[11:06:05.508]',-0.075
'[11:06:05.516]',-0.085
'[11:06:05.523]',-0.055
'[11:06:05.531]',-0.065
'[11:06:05.539]',-0.065
'[11:06:05.547]',-0.025
'[11:06:05.555]',-0.015
'[11:06:05.563]',-0.005
'[11:06:05.570]',0.055
'[11:06:05.578]',0.255
'[11:06:05.586]',0.905
'[11:06:05.594]',1.395
'[11:06:05.602]',0.985
'[11:06:05.609]',0.035
'[11:06:05.617]',-0.495
'[11:06:05.625]',-0.215
'[11:06:05.633]',-0.105
'[11:06:05.641]',-0.075
'[11:06:05.648]',-0.095
'[11:06:05.656]',-0.085
'[11:06:05.664]',-0.135
'[11:06:05.672]',-0.085
'[11:06:05.680]',-0.075
'[11:06:05.688]',-0.095
'[11:06:05.695]',-0.085
'[11:06:05.703]',-0.085
'[11:06:05.711]',-0.085
'[11:06:05.719]',-0.065
'[11:06:05.727]',-0.095
'[11:06:05.734]',-0.115
'[11:06:05.742]',-0.095
'[11:06:05.750]',-0.115
'[11:06:05.758]',-0.075
'[11:06:05.766]',-0.095
'[11:06:05.773]',-0.085
'[11:06:05.781]',-0.105
'[11:06:05.789]',-0.125
'[11:06:05.797]',-0.075
'[11:06:05.805]',-0.095
'[11:06:05.813]',-0.115
'[11:06:05.820]',-0.125
'[11:06:05.828]',-0.125
'[11:06:05.836]',-0.125
'[11:06:05.844]',-0.125
'[11:06:05.852]',-0.125
'[11:06:05.859]',-0.085
'[11:06:05.867]',-0.065
'[11:06:05.875]',-0.065
'[11:06:05.883]',-0.035
'[11:06:05.891]',-0.035
'[11:06:05.898]',-0.035
'[11:06:05.906]',-0.025
'[11:06:05.914]',-0.035
'[11:06:05.922]',-0.035
'[11:06:05.930]',-0.055
'[11:06:05.938]',-0.045
'[11:06:05.945]',-0.075
'[11:06:05.953]',-0.055
'[11:06:05.961]',-0.055
'[11:06:05.969]',-0.075
'[11:06:05.977]',-0.055
'[11:06:05.984]',-0.095
'[11:06:05.992]',-0.065
'[11:06:06.000]',-0.055
'[11:06:06.008]',-0.045
'[11:06:06.016]',-0.065
'[11:06:06.023]',-0.045
'[11:06:06.031]',-0.045
'[11:06:06.039]',-0.055
'[11:06:06.047]',-0.025
'[11:06:06.055]',-0.015
'[11:06:06.063]',-0.015
'[11:06:06.070]',-0.045
'[11:06:06.078]',-0.035
'[11:06:06.086]',-0.045
'[11:06:06.094]',-0.045
'[11:06:06.102]',-0.045
'[11:06:06.109]',-0.035
'[11:06:06.117]',-0.055
'[11:06:06.125]',-0.055
'[11:06:06.133]',-0.035
'[11:06:06.141]',-0.055
'[11:06:06.148]',-0.045
'[11:06:06.156]',-0.025
'[11:06:06.164]',-0.055
'[11:06:06.172]',-0.065
'[11:06:06.180]',-0.055
'[11:06:06.188]',-0.035
'[11:06:06.195]',-0.045
'[11:06:06.203]',-0.055
'[11:06:06.211]',-0.035
'[11:06:06.219]',-0.045
'[11:06:06.227]',-0.055
'[11:06:06.234]',-0.055
'[11:06:06.242]',-0.045
'[11:06:06.250]',-0.035
'[11:06:06.258]',-0.035
'[11:06:06.266]',-0.045
'[11:06:06.273]',-0.025
'[11:06:06.281]',-0.065
'[11:06:06.289]',-0.045
'[11:06:06.297]',-0.045
'[11:06:06.305]',0.005
'[11:06:06.313]',0.025
'[11:06:06.320]',0.005
'[11:06:06.328]',0.045
'[11:06:06.336]',0.025
'[11:06:06.344]',0.065
'[11:06:06.352]',0.015
'[11:06:06.359]',0.075
'[11:06:06.367]',-0.015
'[11:06:06.375]',-0.005
'[11:06:06.383]',-0.025
'[11:06:06.391]',-0.035
'[11:06:06.398]',-0.065
'[11:06:06.406]',-0.075
'[11:06:06.414]',-0.085
'[11:06:06.422]',-0.075
'[11:06:06.430]',-0.055
'[11:06:06.438]',-0.075
'[11:06:06.445]',-0.065
'[11:06:06.453]',-0.035
'[11:06:06.461]',-0.045
'[11:06:06.469]',-0.045
'[11:06:06.477]',-0.005
'[11:06:06.484]',0.015
'[11:06:06.492]',0.075
'[11:06:06.500]',0.385
'[11:06:06.508]',1.035
'[11:06:06.516]',1.345
'[11:06:06.523]',0.625
'[11:06:06.531]',-0.355
'[11:06:06.539]',-0.415
'[11:06:06.547]',-0.145
'[11:06:06.555]',-0.065
'[11:06:06.563]',-0.075
'[11:06:06.570]',-0.085
'[11:06:06.578]',-0.115
'[11:06:06.586]',-0.085
'[11:06:06.594]',-0.125
'[11:06:06.602]',-0.095
'[11:06:06.609]',-0.105
'[11:06:06.617]',-0.115
'[11:06:06.625]',-0.115
'[11:06:06.633]',-0.105
'[11:06:06.641]',-0.115
'[11:06:06.648]',-0.115
'[11:06:06.656]',-0.105
'[11:06:06.664]',-0.105
'[11:06:06.672]',-0.085
'[11:06:06.680]',-0.105
'[11:06:06.688]',-0.105
'[11:06:06.695]',-0.125
'[11:06:06.703]',-0.125
'[11:06:06.711]',-0.105
'[11:06:06.719]',-0.115
'[11:06:06.727]',-0.115
'[11:06:06.734]',-0.115
'[11:06:06.742]',-0.145
'[11:06:06.750]',-0.125
'[11:06:06.758]',-0.135
'[11:06:06.766]',-0.155
'[11:06:06.773]',-0.125
'[11:06:06.781]',-0.115
'[11:06:06.789]',-0.065
'[11:06:06.797]',-0.075
'[11:06:06.805]',-0.045
'[11:06:06.813]',-0.045
'[11:06:06.820]',0.005
'[11:06:06.828]',-0.035
'[11:06:06.836]',-0.065
'[11:06:06.844]',-0.045
'[11:06:06.852]',-0.075
'[11:06:06.859]',-0.055
'[11:06:06.867]',-0.055
'[11:06:06.875]',-0.065
'[11:06:06.883]',-0.065
'[11:06:06.891]',-0.055
'[11:06:06.898]',-0.055
'[11:06:06.906]',-0.065
'[11:06:06.914]',-0.075
'[11:06:06.922]',-0.065
'[11:06:06.930]',-0.035
'[11:06:06.938]',-0.075
'[11:06:06.945]',-0.055
'[11:06:06.953]',-0.025
'[11:06:06.961]',-0.035
'[11:06:06.969]',-0.045
'[11:06:06.977]',-0.055
'[11:06:06.984]',-0.055
'[11:06:06.992]',-0.015
'[11:06:07.000]',-0.025
'[11:06:07.008]',-0.045
'[11:06:07.016]',-0.015
'[11:06:07.023]',-0.045
'[11:06:07.031]',-0.025
'[11:06:07.039]',-0.035
'[11:06:07.047]',-0.055
'[11:06:07.055]',-0.025
'[11:06:07.063]',-0.025
'[11:06:07.070]',-0.055
'[11:06:07.078]',-0.045
'[11:06:07.086]',-0.035
'[11:06:07.094]',-0.025
'[11:06:07.102]',-0.045
'[11:06:07.109]',-0.015
'[11:06:07.117]',-0.045
'[11:06:07.125]',-0.055
'[11:06:07.133]',-0.045
'[11:06:07.141]',-0.035
'[11:06:07.148]',-0.025
'[11:06:07.156]',-0.045
'[11:06:07.164]',-0.055
'[11:06:07.172]',-0.045
'[11:06:07.180]',-0.035
'[11:06:07.188]',-0.025
'[11:06:07.195]',-0.055
'[11:06:07.203]',-0.045
'[11:06:07.211]',-0.035
'[11:06:07.219]',-0.005
'[11:06:07.227]',0.035
'[11:06:07.234]',0.015
'[11:06:07.242]',0.035
'[11:06:07.250]',0.055
'[11:06:07.258]',0.025
'[11:06:07.266]',0.005
'[11:06:07.273]',0.025
'[11:06:07.281]',0.005
'[11:06:07.289]',0.005
'[11:06:07.297]',-0.015
'[11:06:07.305]',-0.035
'[11:06:07.313]',-0.045
'[11:06:07.320]',-0.065
'[11:06:07.328]',-0.085
'[11:06:07.336]',-0.075
'[11:06:07.344]',-0.085
'[11:06:07.352]',-0.035
'[11:06:07.359]',-0.035
'[11:06:07.367]',-0.055
'[11:06:07.375]',-0.025
'[11:06:07.383]',-0.015
'[11:06:07.391]',-0.015
'[11:06:07.398]',0.065
'[11:06:07.406]',0.135
'[11:06:07.414]',0.665
'[11:06:07.422]',1.325
'[11:06:07.430]',1.105
'[11:06:07.438]',0.235
'[11:06:07.445]',-0.445
'[11:06:07.453]',-0.285
'[11:06:07.461]',-0.055
'[11:06:07.469]',-0.055
'[11:06:07.477]',-0.065
'[11:06:07.484]',-0.065
'[11:06:07.492]',-0.105
'[11:06:07.500]',-0.075
'[11:06:07.508]',-0.085
'[11:06:07.516]',-0.075
'[11:06:07.523]',-0.055
'[11:06:07.531]',-0.095
'[11:06:07.539]',-0.075
'[11:06:07.547]',-0.075
'[11:06:07.555]',-0.075
'[11:06:07.563]',-0.085
'[11:06:07.570]',-0.055
'[11:06:07.578]',-0.085
'[11:06:07.586]',-0.065
'[11:06:07.594]',-0.095
'[11:06:07.602]',-0.085
'[11:06:07.609]',-0.115
'[11:06:07.617]',-0.105
'[11:06:07.625]',-0.105
'[11:06:07.633]',-0.085
'[11:06:07.641]',-0.105
'[11:06:07.648]',-0.115
'[11:06:07.656]',-0.115
'[11:06:07.664]',-0.135
'[11:06:07.672]',-0.105
'[11:06:07.680]',-0.115
'[11:06:07.688]',-0.105
'[11:06:07.695]',-0.075
'[11:06:07.703]',-0.085
'[11:06:07.711]',-0.055
'[11:06:07.719]',-0.035
'[11:06:07.727]',-0.015
'[11:06:07.734]',-0.025
'[11:06:07.742]',-0.035
'[11:06:07.750]',-0.055
'[11:06:07.758]',-0.035
'[11:06:07.766]',-0.065
'[11:06:07.773]',-0.025
'[11:06:07.781]',-0.075
'[11:06:07.789]',-0.055
'[11:06:07.797]',-0.045
'[11:06:07.805]',-0.055
'[11:06:07.813]',-0.065
'[11:06:07.820]',-0.055
'[11:06:07.828]',-0.065
'[11:06:07.836]',-0.045
'[11:06:07.844]',-0.055
'[11:06:07.852]',-0.055
'[11:06:07.859]',-0.035
'[11:06:07.867]',-0.025
'[11:06:07.875]',-0.025
'[11:06:07.883]',-0.035
'[11:06:07.891]',-0.025
'[11:06:07.898]',-0.025
'[11:06:07.906]',-0.025
'[11:06:07.914]',-0.025
'[11:06:07.922]',-0.015
'[11:06:07.930]',-0.035
'[11:06:07.938]',-0.035
'[11:06:07.945]',-0.025
'[11:06:07.953]',-0.035
'[11:06:07.961]',-0.025
'[11:06:07.969]',-0.015
'[11:06:07.977]',-0.045
'[11:06:07.984]',-0.035
'[11:06:07.992]',-0.005
'[11:06:08.000]',-0.045
'[11:06:08.008]',-0.045
'[11:06:08.016]',-0.055
'[11:06:08.023]',-0.035
'[11:06:08.031]',-0.045
'[11:06:08.039]',-0.055
'[11:06:08.047]',-0.025
'[11:06:08.055]',-0.005
'[11:06:08.063]',-0.035
'[11:06:08.070]',-0.045
'[11:06:08.078]',-0.045
'[11:06:08.086]',-0.045
'[11:06:08.094]',-0.015
'[11:06:08.102]',-0.045
'[11:06:08.109]',0.025
'[11:06:08.117]',0.035
'[11:06:08.125]',0.015
'[11:06:08.133]',0.015
'[11:06:08.141]',0.055
'[11:06:08.148]',0.045
'[11:06:08.156]',0.035
'[11:06:08.164]',0.015
'[11:06:08.172]',0.015
'[11:06:08.180]',0.045
'[11:06:08.188]',-0.035
'[11:06:08.195]',-0.055
'[11:06:08.203]',-0.065
'[11:06:08.211]',-0.075
'[11:06:08.219]',-0.075
'[11:06:08.227]',-0.095
'[11:06:08.234]',-0.055
'[11:06:08.242]',-0.055
'[11:06:08.250]',-0.055
'[11:06:08.258]',-0.065
'[11:06:08.266]',-0.045
'[11:06:08.273]',-0.035
'[11:06:08.281]',-0.035
'[11:06:08.289]',0.005
'[11:06:08.297]',0.085
'[11:06:08.305]',0.445
'[11:06:08.313]',1.135
'[11:06:08.320]',1.305
'[11:06:08.328]',0.465
'[11:06:08.336]',-0.425
'[11:06:08.344]',-0.365
'[11:06:08.352]',-0.135
'[11:06:08.359]',-0.065
'[11:06:08.367]',-0.085
'[11:06:08.375]',-0.095
'[11:06:08.383]',-0.095
'[11:06:08.391]',-0.115
'[11:06:08.398]',-0.115
'[11:06:08.406]',-0.095
'[11:06:08.414]',-0.095
'[11:06:08.422]',-0.075
'[11:06:08.430]',-0.105
'[11:06:08.438]',-0.085
'[11:06:08.445]',-0.095
'[11:06:08.453]',-0.105
'[11:06:08.461]',-0.085
'[11:06:08.469]',-0.085
'[11:06:08.477]',-0.105
'[11:06:08.484]',-0.095
'[11:06:08.492]',-0.085
'[11:06:08.500]',-0.105
'[11:06:08.508]',-0.105
'[11:06:08.516]',-0.115
'[11:06:08.523]',-0.105
'[11:06:08.531]',-0.135
'[11:06:08.539]',-0.095
'[11:06:08.547]',-0.115
'[11:06:08.555]',-0.125
'[11:06:08.563]',-0.145
'[11:06:08.570]',-0.135
'[11:06:08.578]',-0.125
'[11:06:08.586]',-0.095
'[11:06:08.594]',-0.065
'[11:06:08.602]',-0.055
'[11:06:08.609]',-0.005
'[11:06:08.617]',-0.025
'[11:06:08.625]',-0.035
'[11:06:08.633]',-0.035
'[11:06:08.641]',-0.065
'[11:06:08.648]',-0.065
'[11:06:08.656]',-0.075
'[11:06:08.664]',-0.055
'[11:06:08.672]',-0.045
'[11:06:08.680]',-0.085
'[11:06:08.688]',-0.065
'[11:06:08.695]',-0.075
'[11:06:08.703]',-0.055
'[11:06:08.711]',-0.085
'[11:06:08.719]',-0.085
'[11:06:08.727]',-0.065
'[11:06:08.734]',-0.065
'[11:06:08.742]',-0.035
'[11:06:08.750]',-0.065
'[11:06:08.758]',-0.065
'[11:06:08.766]',-0.045
'[11:06:08.773]',-0.045
'[11:06:08.781]',-0.035
'[11:06:08.789]',-0.035
'[11:06:08.797]',-0.035
'[11:06:08.805]',-0.025
'[11:06:08.813]',-0.025
'[11:06:08.820]',-0.055
'[11:06:08.828]',-0.035
'[11:06:08.836]',-0.055
'[11:06:08.844]',-0.035
'[11:06:08.852]',-0.035
'[11:06:08.859]',-0.035
'[11:06:08.867]',-0.035
'[11:06:08.875]',-0.045
'[11:06:08.883]',-0.055
'[11:06:08.891]',-0.055
'[11:06:08.898]',-0.035
'[11:06:08.906]',-0.035
'[11:06:08.914]',-0.055
'[11:06:08.922]',-0.065
'[11:06:08.930]',-0.035
'[11:06:08.938]',-0.035
'[11:06:08.945]',-0.055
'[11:06:08.953]',-0.045
'[11:06:08.961]',-0.025
'[11:06:08.969]',-0.045
'[11:06:08.977]',-0.035
'[11:06:08.984]',-0.035
'[11:06:08.992]',0.005
'[11:06:09.000]',-0.015
'[11:06:09.008]',0.015
'[11:06:09.016]',0.025
'[11:06:09.023]',0.055
'[11:06:09.031]',0.045
'[11:06:09.039]',0.035
'[11:06:09.047]',0.025
'[11:06:09.055]',0.005
'[11:06:09.063]',-0.005
'[11:06:09.070]',-0.015
'[11:06:09.078]',-0.065
'[11:06:09.086]',-0.085
'[11:06:09.094]',-0.095
'[11:06:09.102]',-0.065
'[11:06:09.109]',-0.075
'[11:06:09.117]',-0.085
'[11:06:09.125]',-0.065
'[11:06:09.133]',-0.065
'[11:06:09.141]',-0.065
'[11:06:09.148]',-0.035
'[11:06:09.156]',-0.025
'[11:06:09.164]',-0.045
'[11:06:09.172]',0.025
'[11:06:09.180]',0.105
'[11:06:09.188]',0.575
'[11:06:09.195]',1.285
'[11:06:09.203]',1.245
'[11:06:09.211]',0.425
'[11:06:09.219]',-0.485
'[11:06:09.227]',-0.345
'[11:06:09.234]',-0.105
'[11:06:09.242]',-0.085
'[11:06:09.250]',-0.095
'[11:06:09.258]',-0.105
'[11:06:09.266]',-0.115
'[11:06:09.273]',-0.085
'[11:06:09.281]',-0.125
'[11:06:09.289]',-0.095
'[11:06:09.297]',-0.105
'[11:06:09.305]',-0.085
'[11:06:09.313]',-0.115
'[11:06:09.320]',-0.105
'[11:06:09.328]',-0.105
'[11:06:09.336]',-0.105
'[11:06:09.344]',-0.115
'[11:06:09.352]',-0.115
'[11:06:09.359]',-0.095
'[11:06:09.367]',-0.105
'[11:06:09.375]',-0.105
'[11:06:09.383]',-0.135
'[11:06:09.391]',-0.125
'[11:06:09.398]',-0.105
'[11:06:09.406]',-0.135
'[11:06:09.414]',-0.155
'[11:06:09.422]',-0.105
'[11:06:09.430]',-0.165
'[11:06:09.438]',-0.155
'[11:06:09.445]',-0.135
'[11:06:09.453]',-0.155
'[11:06:09.461]',-0.155
'[11:06:09.469]',-0.135
'[11:06:09.477]',-0.115
'[11:06:09.484]',-0.065
'[11:06:09.492]',-0.035
'[11:06:09.500]',-0.055
'[11:06:09.508]',-0.055
'[11:06:09.516]',-0.035
'[11:06:09.523]',-0.055
'[11:06:09.531]',-0.065
'[11:06:09.539]',-0.065
'[11:06:09.547]',-0.085
'[11:06:09.555]',-0.055
'[11:06:09.563]',-0.075
'[11:06:09.570]',-0.095
'[11:06:09.578]',-0.075
'[11:06:09.586]',-0.095
'[11:06:09.594]',-0.035
'[11:06:09.602]',-0.075
'[11:06:09.609]',-0.065
'[11:06:09.617]',-0.055
'[11:06:09.625]',-0.055
'[11:06:09.633]',-0.055
'[11:06:09.641]',-0.035
'[11:06:09.648]',-0.045
'[11:06:09.656]',-0.045
'[11:06:09.664]',-0.025
'[11:06:09.672]',-0.055
'[11:06:09.680]',-0.035
'[11:06:09.688]',-0.025
'[11:06:09.695]',-0.035
'[11:06:09.703]',-0.035
'[11:06:09.711]',-0.035
'[11:06:09.719]',-0.025
'[11:06:09.727]',-0.045
'[11:06:09.734]',-0.065
'[11:06:09.742]',-0.055
'[11:06:09.750]',-0.035
'[11:06:09.758]',-0.065
'[11:06:09.766]',-0.025
'[11:06:09.773]',-0.065
'[11:06:09.781]',-0.045
'[11:06:09.789]',-0.065
'[11:06:09.797]',-0.055
'[11:06:09.805]',-0.055
'[11:06:09.813]',-0.035
'[11:06:09.820]',-0.065
'[11:06:09.828]',-0.045
'[11:06:09.836]',-0.075
'[11:06:09.844]',-0.045
'[11:06:09.852]',-0.075
'[11:06:09.859]',-0.045
'[11:06:09.867]',-0.035
'[11:06:09.875]',-0.045
'[11:06:09.883]',-0.065
'[11:06:09.891]',-0.015
'[11:06:09.898]',0.005
'[11:06:09.906]',-0.005
'[11:06:09.914]',0.015
'[11:06:09.922]',0.015
'[11:06:09.930]',0.035
'[11:06:09.938]',0.045
'[11:06:09.945]',0.015
'[11:06:09.953]',0.005
'[11:06:09.961]',-0.005
'[11:06:09.969]',-0.035
'[11:06:09.977]',-0.085
'[11:06:09.984]',-0.085
'[11:06:09.992]',-0.095
